-0.0532532;-0.0309753;0.0105286;0.0663757;0.0997925;0.0732422;-0.0401306;-0.0724792;-0.0578308;-0.052948;-0.0593567;-0.0920105;0.623016;0.582581;-0.553436;-0.140076;-0.00595093;-0.0495911;-0.0288391;-0.0012207;0.0366211;0.0450134;0.0471497;0.0602722;0.0735474;0.130157;0.150909;0.172272;0.186462;0.188293;0.147095;0.0854492;-0.0169373;-0.0990295;-0.128632;-0.126495;-0.104828;-0.0894165;-0.0613403;-0.063324;-0.0790405;-0.0863647;-0.0946045;-0.0672913;-0.0706482;-0.0587463;-0.0808716;-0.0654602;-0.0772095;-0.0628662;-0.043335;-0.0276184;-0.0541687;-0.0566101;-0.0334167;-0.0361633;0.0210571;0.0915527;0.112915;0.0796509;-0.0453186;-0.0617981;-0.0570679;-0.0523376;-0.0630188;-0.0791931;0.861816;0.370178;-0.570068;-0.057373;-0.0367737;-0.035553;-0.027771;-0.00762939;0.0349426;0.0518799;0.0463867;0.04776;0.0968933;0.123444;0.170288;0.193176;0.205383;0.186615;0.150909;0.0683594;-0.058136;-0.117493;-0.144348;-0.137329;-0.107422;-0.0949097;-0.0596619;-0.065918;-0.0646973;-0.0926208;-0.0881958;-0.0700378;-0.0556946;-0.0637817;-0.0656128;-0.0744629;-0.0717163;-0.0517273;-0.0334167;-0.0376892;-0.0396729;-0.0543213;-0.0376892;-0.0297546;-0.0141907;0.0880432;0.087738;0.12558;0.039978;-0.0830078;-0.0396729;-0.0617981;-0.0546265;-0.0639343;0.0209045;1.26602;-0.221405;-0.365601;-0.00350952;-0.057373;-0.0308228;-0.01297;0.0115967;0.0335693;0.0317383;0.0624084;0.0770569;0.0950623;0.177765;0.176392;0.192413;0.216217;0.202942;0.145721;0.018158;-0.0688171;-0.15213;-0.142365;-0.127411;-0.0909424;-0.0709534;-0.0717163;-0.0735474;-0.0894165;-0.085144;-0.0741577;-0.0584412;-0.0691223;-0.0741577;-0.0779724;-0.0741577;-0.0552368;-0.0439453;-0.0375366;-0.0579834;-0.0498962;-0.0495911;-0.0328064;-0.0213623;-0.0187683;-0.0280762;-0.00106812;0.0834656;0.131226;0.109558;-0.0161743;-0.065155;-0.0849915;-0.0692749;-0.0509644;-0.043335;0.714874;0.722809;-0.665436;-0.0834656;-0.0364685;-0.0209045;0.00534058;-0.020752;-0.000305176;0.0254822;0.04776;0.085144;0.104218;0.133057;0.141907;0.170288;0.204315;0.232849;0.18692;0.0741577;-0.0679016;-0.137177;-0.147705;-0.128632;-0.0932312;-0.110779;-0.0926208;-0.100098;-0.0866699;-0.0765991;-0.0660706;-0.0871277;-0.10025;-0.0979614;-0.068512;-0.0657654;-0.0593567;-0.0791931;-0.0749207;-0.0683594;-0.0444031;-0.0361633;-0.0300598;-0.0535583;-0.0486755;-0.0462341;-0.0320435;0.000305176;0.0906372;0.0799561;0.0965881;0.0128174;-0.070343;-0.0520325;-0.0575256;-0.0700378;-0.0822449;0.26947;1.12732;-0.54306;-0.211487;-0.037384;-0.0456238;-0.0221252;0.000305176;0.0196838;0.0396729;0.0392151;0.0479126;0.0614929;0.128784;0.149536;0.182037;0.184631;0.176086;0.179291;0.104828;0.00320435;-0.110626;-0.142365;-0.133514;-0.130157;-0.091095;-0.0753784;-0.0720215;-0.0894165;-0.0897217;-0.0914001;-0.0726318;-0.063324;-0.0543213;-0.0715637;-0.0769043;-0.0823975;-0.057373;-0.0379944;-0.0395203;-0.0570679;-0.0537109;-0.0564575;-0.0360107;-0.0311279;-0.0202942;0.00320435;0.0358582;0.115356;0.101624;-0.0119019;-0.040741;-0.0695801;-0.0602722;-0.0639343;-0.0564575;0.675964;0.285797;-0.494995;-0.157776;-0.0192261;0.00106812;0.014801;0.0152588;0.00915527;0.0419617;0.052948;0.085907;0.108795;0.134277;0.13916;0.167236;0.16861;0.210724;0.184631;0.0770569;-0.0616455;-0.117493;-0.123138;-0.105438;-0.0747681;-0.0740051;-0.0814819;-0.0868225;-0.085907;-0.0720215;-0.0627136;-0.0675964;-0.0830078;-0.0828552;-0.0654602;-0.0587463;-0.0469971;-0.0401306;-0.0592041;-0.0733948;-0.0279236;-0.0323486;-0.0134277;-0.017395;-0.0177002;0.0489807;0.0804138;0.139923;0.0694275;-0.0531006;-0.0646973;-0.0657654;-0.063324;-0.0569153;0.0761414;1.25763;-0.454865;-0.369873;-0.0141907;-0.0292969;-0.00305176;0.00610352;0.015564;0.0154114;0.0396729;0.0856018;0.102844;0.135498;0.149994;0.174561;0.217896;0.227509;0.243378;0.127258;0.00564575;-0.118256;-0.140991;-0.127411;-0.115662;-0.0906372;-0.0837708;-0.0808716;-0.0808716;-0.0619507;-0.0566101;-0.0688171;-0.0811768;-0.078125;-0.0790405;-0.0700378;-0.0515747;-0.0378418;-0.0708008;-0.0587463;-0.0663757;-0.0212097;-0.0216675;-0.0314331;-0.0120544;0.0602722;0.0866699;0.148468;0.0544739;-0.0701904;-0.0712585;-0.0727844;-0.0592041;-0.0576782;0.0979614;1.30447;-0.468903;-0.365906;-0.00900269;-0.0358582;-0.00427246;0.000457764;-0.000457764;0.0105286;0.0395203;0.0820923;0.112915;0.129547;0.148926;0.191956;0.202332;0.255585;0.233154;0.125732;-0.0204468;-0.126801;-0.153503;-0.144501;-0.112457;-0.0775146;-0.0984192;-0.0978088;-0.0802612;-0.0582886;-0.071106;-0.0611877;-0.0726318;-0.0886536;-0.0770569;-0.065155;-0.0447083;-0.0517273;-0.0631714;-0.0717163;-0.0468445;-0.0457764;-0.0276184;-0.0282288;-0.0430298;-0.0474548;-0.0138855;0.0779724;0.108948;0.117645;-0.000762939;-0.0823975;-0.0842285;-0.0610352;-0.0386047;-0.0605774;0.181885;1.21353;-0.595245;-0.259094;-0.0135803;-0.0382996;-0.0311279;-0.0300598;-0.0143433;0.0215149;0.0392151;0.0582886;0.0735474;0.108185;0.119019;0.18219;0.20752;0.20752;0.177917;0.0941467;-0.0398254;-0.119324;-0.146942;-0.151978;-0.129547;-0.128326;-0.102234;-0.0886536;-0.0900269;-0.0753784;-0.0814819;-0.120239;-0.0942993;-0.0799561;-0.072937;-0.0708008;-0.0935364;-0.096283;-0.0718689;-0.06073;-0.0413513;-0.0521851;-0.0556946;-0.0593567;-0.0424194;0.0215149;0.0575256;0.122833;0.062561;-0.0558472;-0.0776672;-0.0733948;-0.0598145;-0.0444031;-0.0895691;0.749817;0.112457;-0.482025;-0.116272;-0.0289917;-0.037384;-0.0204468;-0.000457764;0.0120544;0.040741;0.0543213;0.0756836;0.065155;0.119476;0.161285;0.182953;0.21637;0.200195;0.150909;0.0239563;-0.0575256;-0.113525;-0.139771;-0.127411;-0.124817;-0.105591;-0.0894165;-0.0794983;-0.0747681;-0.0932312;-0.091095;-0.0906372;-0.0846863;-0.0715637;-0.0726318;-0.0767517;-0.0813293;-0.0747681;-0.043335;-0.0306702;-0.0486755;-0.0567627;-0.0642395;-0.0340271;0.0234985;0.0796509;0.137329;0.0643921;-0.0532532;-0.0961304;-0.072937;-0.0534058;-0.0553894;-0.0900269;0.815887;0.236053;-0.603943;-0.0631714;-0.0474548;-0.0500488;-0.0346375;-0.0328064;-0.0038147;0.045166;0.0442505;0.0616455;0.0790405;0.11795;0.153503;0.205841;0.228729;0.211487;0.15213;0.0236511;-0.0875854;-0.15152;-0.155029;-0.157166;-0.131226;-0.111389;-0.08255;-0.0721741;-0.0769043;-0.0842285;-0.100098;-0.0912476;-0.0733948;-0.0624084;-0.0643921;-0.0814819;-0.0920105;-0.0726318;-0.039978;-0.0369263;-0.0498962;-0.0579834;-0.0602722;-0.0440979;-0.018158;0.0440979;0.0907898;0.127258;0.0445557;-0.0654602;-0.0648499;-0.062561;-0.0588989;-0.0668335;-0.0845337;1.10016;0.180206;-0.576782;-0.0140381;-0.0653076;-0.0427246;-0.0201416;-0.00167847;0.0177002;0.0350952;0.0413513;0.0579834;0.0956726;0.140839;0.180054;0.222778;0.205536;0.221558;0.149231;0.0395203;-0.0727844;-0.14389;-0.174713;-0.151062;-0.123444;-0.0942993;-0.0737;-0.0801086;-0.092926;-0.0950623;-0.0788879;-0.0708008;-0.0737;-0.067749;-0.0881958;-0.0846863;-0.0706482;-0.0434875;-0.0453186;-0.0488281;-0.0549316;-0.0523376;-0.0546265;-0.0331116;-0.0144958;-0.0138855;0.0466919;0.055542;0.120239;0.045166;-0.0558472;-0.0630188;-0.0828552;-0.0648499;-0.0669861;0.0309753;1.1554;-0.415955;-0.362091;-0.0492859;-0.0354004;-0.00946045;0.0160217;0.00686646;0.0123596;0.0239563;0.0587463;0.0852966;0.114746;0.140991;0.155182;0.167389;0.206604;0.213623;0.159149;0.0247192;-0.0942993;-0.144348;-0.140991;-0.109558;-0.0846863;-0.0811768;-0.0846863;-0.0892639;-0.0868225;-0.0657654;-0.0614929;-0.0846863;-0.0866699;-0.0798035;-0.0849915;-0.0537109;-0.0559998;-0.0448608;-0.0688171;-0.0637817;-0.0628662;-0.00732422;-0.0312805;-0.0267029;0.0170898;0.0639343;0.126343;0.0811768;-0.0332642;-0.0534058;-0.0852966;-0.0682068;-0.0563049;-0.0489807;0.913391;0.0790405;-0.522308;-0.0827026;-0.0358582;-0.00167847;0.00671387;0.0106812;-0.000457764;0.0354004;0.0521851;0.098877;0.117188;0.149536;0.160675;0.190582;0.207062;0.228729;0.196533;0.0511169;-0.0889587;-0.151367;-0.151062;-0.11261;-0.0997925;-0.100708;-0.100708;-0.0788879;-0.0894165;-0.0668335;-0.0637817;-0.0643921;-0.0892639;-0.0933838;-0.0532532;-0.0532532;-0.0511169;-0.0434875;-0.0650024;-0.0500488;-0.0469971;-0.0296021;-0.0170898;-0.032196;-0.0317383;0.00259399;0.0837708;0.148773;0.122375;-0.0140381;-0.0875854;-0.0764465;-0.0479126;-0.0247192;-0.0552368;0.674133;0.801392;-0.689087;-0.072937;-0.0228882;-0.000915527;-0.0180054;-0.0205994;-0.000305176;0.0379944;0.0654602;0.0849915;0.10498;0.11261;0.149384;0.197754;0.226898;0.240021;0.202637;0.0683594;-0.0521851;-0.138855;-0.138245;-0.135498;-0.110321;-0.110016;-0.0964355;-0.0863647;-0.0715637;-0.0672913;-0.0790405;-0.0886536;-0.0952148;-0.078125;-0.0546265;-0.0657654;-0.0584412;-0.0657654;-0.0605774;-0.0584412;-0.0245667;-0.0300598;-0.0300598;-0.0485229;-0.0421143;-0.0213623;0.01297;0.0759888;0.0978088;0.142365;0.0401306;-0.0627136;-0.0514221;-0.0538635;-0.0416565;-0.0674438;-0.0358582;1.26587;-0.204773;-0.456848;-0.00579834;-0.0585938;-0.0469971;-0.0126648;0.0119019;0.0315857;0.0274658;0.0523376;0.0692749;0.111542;0.142975;0.162506;0.198364;0.200043;0.203857;0.147552;0.0442505;-0.065155;-0.145874;-0.147858;-0.132141;-0.102539;-0.0820923;-0.0740051;-0.093689;-0.0881958;-0.0888062;-0.0822449;-0.0701904;-0.0628662;-0.0752258;-0.0834656;-0.0778198;-0.0550842;-0.0473022;-0.0352478;-0.0427246;-0.0523376;-0.0517273;-0.037384;-0.0231934;-0.0201416;0.0108337;0.0416565;0.111389;0.0785828;-0.000762939;-0.0541687;-0.0566101;-0.0787354;-0.0614929;-0.0785828;0.661621;0.553741;-0.50293;-0.154877;-0.0137329;-0.0170898;0.0131226;0.0285339;0.0405884;0.032959;0.0471497;0.0813293;0.103607;0.128326;0.146484;0.173035;0.176239;0.198822;0.187531;0.118713;-0.0279236;-0.114136;-0.12558;-0.107574;-0.0842285;-0.0846863;-0.0642395;-0.0907898;-0.0869751;-0.0814819;-0.0517273;-0.065155;-0.0631714;-0.0663757;-0.0750732;-0.0587463;-0.039978;-0.0367737;-0.0346375;-0.0515747;-0.0418091;-0.0344849;-0.00961304;0.00106812;0.0740051;0.0860596;0.113831;0.0170898;-0.055542;-0.0508118;-0.0514221;-0.062561;-0.0692749;0.457153;0.98053;-0.618896;-0.148621;-0.0260925;-0.043335;-0.00610352;0.0137329;0.0364685;0.0260925;0.0563049;0.0642395;0.106201;0.145111;0.166016;0.191345;0.191956;0.217285;0.19516;0.12619;-0.0161743;-0.119629;-0.149384;-0.141144;-0.123749;-0.0817871;-0.0723267;-0.0788879;-0.0946045;-0.0831604;-0.0840759;-0.0614929;-0.0498962;-0.0737;-0.0914001;-0.0730896;-0.0642395;-0.0454712;-0.0358582;-0.0512695;-0.0524902;-0.0483704;-0.0390625;0.0276184;0.103149;0.130768;0.0779724;-0.0144958;-0.0813293;-0.0396729;-0.0624084;-0.0396729;-0.088501;0.531464;0.703583;-0.661469;-0.102539;-0.0465393;-0.042572;-0.0215149;-0.00762939;0.019989;0.045166;0.0505066;0.0610352;0.101624;0.133362;0.186157;0.205841;0.2034;0.223083;0.198822;0.0682068;-0.0340271;-0.114441;-0.146942;-0.146027;-0.130157;-0.102997;-0.0666809;-0.0735474;-0.0854492;-0.0949097;-0.0901794;-0.0735474;-0.0856018;-0.0749207;-0.0784302;-0.0830078;-0.0798035;-0.0569153;-0.0526428;-0.0546265;-0.0456238;-0.0544739;-0.0553894;-0.0161743;0.0743103;0.0785828;0.132904;0.00778198;-0.0900269;-0.0564575;-0.0566101;-0.0590515;-0.0520325;0.101929;1.20697;-0.528564;-0.289459;-0.0140381;-0.0389099;-0.0273132;-0.0112915;0.010376;0.0408936;0.0523376;0.0648499;0.070343;0.0941467;0.127411;0.18158;0.201111;0.21225;0.186615;0.132751;-0.00137329;-0.0912476;-0.131836;-0.142365;-0.132294;-0.122375;-0.090332;-0.0692749;-0.0665283;-0.0796509;-0.093689;-0.0865173;-0.0720215;-0.0694275;-0.0524902;-0.071106;-0.0773621;-0.0564575;-0.0402832;-0.0364685;-0.0431824;-0.0253296;0.0131226;0.0538635;0.127106;0.0717163;-0.0486755;-0.0694275;-0.0923157;-0.0708008;-0.0515747;-0.0259399;1.03394;-0.234375;-0.433655;-0.0914001;-0.0108337;0.00915527;0.00411987;0.00656128;0.0146484;0.0357056;0.0561523;0.110626;0.106964;0.134735;0.158844;0.183563;0.203552;0.219421;0.176697;0.0193787;-0.0871277;-0.12619;-0.120087;-0.100403;-0.0923157;-0.0769043;-0.0897217;-0.0813293;-0.0689697;-0.0709534;-0.0773621;-0.0746155;-0.0881958;-0.0863647;-0.0631714;-0.0447083;-0.0541687;-0.052948;-0.070343;-0.0442505;-0.0506592;-0.00198364;0.0521851;0.0727844;0.129852;0.0350952;-0.0575256;-0.0680542;-0.059967;-0.0540161;-0.0733948;-0.0120544;1.25763;-0.256958;-0.452881;-0.0135803;-0.0531006;-0.0276184;-0.0128174;0.012207;0.0280762;0.0418091;0.0546265;0.0880432;0.117188;0.159454;0.182037;0.198669;0.200806;0.228119;0.143738;0.0154114;-0.0865173;-0.163422;-0.159607;-0.140076;-0.0891113;-0.0798035;-0.0741577;-0.0828552;-0.0930786;-0.0813293;-0.085907;-0.055542;-0.0706482;-0.0819397;-0.0842285;-0.0732422;-0.0643921;-0.0358582;-0.0537109;-0.0439453;-0.0579834;-0.0549316;-0.00961304;0.0862122;0.106812;0.0982666;0.00549316;-0.0894165;-0.0668335;-0.0642395;-0.0550842;-0.062561;0.0750732;1.30173;-0.497131;-0.310516;-0.0120544;-0.0471497;-0.0363159;-0.0106812;0.0062561;0.0335693;0.0474548;0.057373;0.0735474;0.108032;0.151978;0.195465;0.207977;0.220947;0.205994;0.121002;-0.0135803;-0.0976562;-0.153198;-0.158539;-0.1474;-0.123138;-0.0846863;-0.0749207;-0.085907;-0.085907;-0.101318;-0.102386;-0.0776672;-0.0744629;-0.0846863;-0.080719;-0.0898743;-0.0814819;-0.0624084;-0.0422668;-0.0514221;-0.0506592;-0.0596619;-0.0514221;-0.0202942;0.0692749;0.0639343;0.103302;-0.00274658;-0.0740051;-0.0674438;-0.0540161;-0.0453186;-0.065155;0.0210571;1.13937;-0.412445;-0.340118;-0.0302124;-0.0469971;-0.0242615;-0.00640869;0.0154114;0.0332642;0.0427246;0.0500488;0.0521851;0.0831604;0.134277;0.176086;0.174713;0.201721;0.17868;0.134277;0.025177;-0.0817871;-0.127716;-0.135193;-0.123749;-0.0982666;-0.0849915;-0.0622559;-0.070343;-0.0773621;-0.096283;-0.0674438;-0.0559998;-0.0636292;-0.0698853;-0.0704956;-0.0723267;-0.0616455;-0.039978;-0.0328064;-0.0457764;-0.0360107;-0.0480652;-0.0038147;0.072937;0.114899;0.125122;-0.0166321;-0.0753784;-0.0584412;-0.0549316;-0.0375366;-0.0717163;0.397186;0.983429;-0.587311;-0.183105;0.00259399;-0.0358582;-0.015564;-0.00793457;0.0088501;0.0465393;0.0640869;0.0675964;0.101471;0.105438;0.153961;0.201416;0.222168;0.233459;0.187988;0.0920105;-0.0415039;-0.113831;-0.123749;-0.136261;-0.131531;-0.10849;-0.0891113;-0.08255;-0.0584412;-0.075531;-0.0918579;-0.0944519;-0.0744629;-0.0875854;-0.0698853;-0.0566101;-0.0823975;-0.075531;-0.0654602;-0.0447083;-0.032959;-0.0447083;-0.0480652;-0.0517273;-0.0244141;0.0631714;0.0979614;0.124969;0.0146484;-0.0816345;-0.0654602;-0.0741577;-0.0422668;-0.0602722;-0.0169373;1.21246;-0.0569153;-0.443268;-0.00473022;-0.0460815;-0.039978;-0.03479;-0.0123596;0.0257874;0.0454712;0.038147;0.0892639;0.0979614;0.127563;0.191498;0.218658;0.224304;0.218964;0.145721;0.0469971;-0.0872803;-0.140839;-0.140991;-0.140228;-0.1297;-0.11322;-0.0769043;-0.0761414;-0.0808716;-0.0961304;-0.0976562;-0.0952148;-0.0628662;-0.0695801;-0.0665283;-0.0836182;-0.0778198;-0.0552368;-0.0468445;-0.0340271;-0.0427246;-0.0547791;-0.0511169;-0.0357056;-0.0234985;0.0292969;0.0627136;0.11322;0.0572205;-0.0212097;-0.0584412;-0.0456238;-0.055542;-0.0611877;-0.0737;0.539703;0.573425;-0.578461;-0.15213;-0.0325012;-0.043335;-0.00610352;0.0119019;0.0318909;0.0253296;0.0442505;0.0471497;0.0813293;0.127716;0.167542;0.177002;0.179901;0.193939;0.18692;0.092926;-0.0245667;-0.123291;-0.15976;-0.146027;-0.106201;-0.0889587;-0.0689697;-0.072937;-0.0918579;-0.0856018;-0.070343;-0.0617981;-0.062561;-0.0747681;-0.0698853;-0.0828552;-0.0549316;-0.0447083;-0.0450134;-0.0559998;-0.0396729;-0.0454712;0.0184631;0.0643921;0.135803;0.0849915;-0.0733948;-0.0653076;-0.059967;-0.050354;-0.0325012;-0.0683594;0.969391;0.142975;-0.515442;-0.0498962;-0.0128174;-0.0132751;-0.00457764;-0.00137329;0.0267029;0.0561523;0.0746155;0.0822449;0.0970459;0.130768;0.172577;0.200348;0.231323;0.226135;0.171814;0.0396729;-0.0578308;-0.121613;-0.115814;-0.112;-0.106354;-0.0924683;-0.0712585;-0.070343;-0.0671387;-0.0727844;-0.0874329;-0.0857544;-0.0723267;-0.0527954;-0.0511169;-0.0637817;-0.0526428;-0.0672913;-0.0315857;-0.0335693;-0.0164795;-0.0300598;-0.0138855;0.0675964;0.0964355;0.144043;0.0541687;-0.0689697;-0.072937;-0.065155;-0.058136;-0.0288391;0.0888062;1.2912;-0.499115;-0.359039;0.0126648;-0.0192261;-0.00808716;-0.000152588;-0.00823975;0.00717163;0.0643921;0.0828552;0.109558;0.122833;0.138245;0.169983;0.228271;0.252533;0.242462;0.150604;-0.0172424;-0.11322;-0.139618;-0.129852;-0.119171;-0.107422;-0.108643;-0.0978088;-0.0744629;-0.0888062;-0.058136;-0.0901794;-0.0787354;-0.0901794;-0.0628662;-0.0654602;-0.0531006;-0.0671387;-0.0602722;-0.0567627;-0.039978;-0.0253296;-0.0231934;-0.0328064;0.0305176;0.0814819;0.139313;0.0798035;-0.0263977;-0.0759888;-0.0747681;-0.0779724;-0.0563049;-0.0627136;0.769043;0.671997;-0.654144;-0.0860596;-0.0352478;-0.0138855;-0.0135803;-0.0170898;-0.00579834;0.0119019;0.0495911;0.0785828;0.110016;0.11734;0.145111;0.184784;0.218048;0.240479;0.20401;0.0749207;-0.0793457;-0.152588;-0.133057;-0.122681;-0.10849;-0.104065;-0.115814;-0.0863647;-0.0744629;-0.0662231;-0.0733948;-0.0802612;-0.0886536;-0.0889587;-0.075531;-0.0527954;-0.0556946;-0.0720215;-0.0663757;-0.0627136;-0.0473022;-0.0289917;-0.0259399;-0.00396729;0.0410461;0.102997;0.0785828;-0.0442505;-0.0566101;-0.0798035;-0.071106;-0.0654602;-0.0727844;0.874329;0.230255;-0.501862;-0.10376;-0.0325012;-0.00610352;0.010376;0.0169373;-0.00457764;0.0457764;0.0466919;0.0738525;0.103149;0.123749;0.131836;0.158997;0.182343;0.194092;0.177612;0.0750732;-0.0537109;-0.12085;-0.143127;-0.116272;-0.0907898;-0.085144;-0.087738;-0.100555;-0.0909424;-0.0883484;-0.0770569;-0.068512;-0.0897217;-0.0942993;-0.0796509;-0.0753784;-0.0559998;-0.04776;-0.0596619;-0.075531;-0.0645447;-0.0187683;0.0559998;0.0773621;0.120087;0.0257874;-0.0933838;-0.08255;-0.0427246;-0.0494385;-0.0790405;-0.000305176;1.17126;-0.214691;-0.380859;-0.0105286;-0.043335;-0.0415039;-0.0241089;-0.00640869;0.0314331;0.0398254;0.0608826;0.0585938;0.0872803;0.144653;0.180664;0.204773;0.216217;0.209198;0.125885;0.0224304;-0.0881958;-0.138855;-0.16098;-0.136566;-0.112305;-0.0947571;-0.0808716;-0.0694275;-0.091095;-0.107727;-0.0918579;-0.0761414;-0.0733948;-0.0662231;-0.0775146;-0.0866699;-0.0749207;-0.0465393;-0.0404358;-0.03479;-0.0523376;-0.0552368;0.0151062;0.0808716;0.142517;0.0952148;-0.020752;-0.0987244;-0.0866699;-0.0628662;-0.0517273;-0.0643921;0.534973;0.712738;-0.702362;-0.111237;-0.039978;-0.0315857;-0.0314331;-0.0247192;-0.0062561;0.0309753;0.0462341;0.0845337;0.091095;0.113373;0.141754;0.203705;0.222321;0.235596;0.198364;0.0457764;-0.0550842;-0.137024;-0.15274;-0.129395;-0.136871;-0.121765;-0.110626;-0.0790405;-0.0915527;-0.0741577;-0.111694;-0.109711;-0.0973511;-0.0794983;-0.0714111;-0.0787354;-0.0999451;-0.075531;-0.075531;-0.0480652;-0.0370789;-0.0366211;-0.050354;-0.0384521;0.0398254;0.0752258;0.157166;0.0538635;-0.0817871;-0.0869751;-0.0798035;-0.0561523;-0.0474548;-0.00198364;1.13083;-0.289917;-0.447998;-0.0151062;-0.0288391;-0.01297;-0.0234985;-0.00930786;0.0233459;0.0463867;0.0663757;0.09552;0.0900269;0.112305;0.158997;0.181885;0.230408;0.215912;0.14679;0.0247192;-0.0897217;-0.127411;-0.13382;-0.101776;-0.118408;-0.116577;-0.092926;-0.0738525;-0.0556946;-0.0752258;-0.087738;-0.0993347;-0.0793457;-0.0688171;-0.0543213;-0.0566101;-0.052948;-0.0595093;-0.0579834;-0.0323486;-0.0254822;-0.012207;0.0230408;0.0505066;0.129395;0.070343;-0.0546265;-0.0604248;-0.0730896;-0.0712585;-0.0627136;-0.0601196;1.05911;-0.0187683;-0.49118;-0.0593567;-0.0312805;0;0.00442505;0.0166321;0.020752;0.038147;0.0474548;0.10025;0.124512;0.145111;0.161133;0.179291;0.194397;0.223694;0.182343;0.058136;-0.0773621;-0.139618;-0.135803;-0.113678;-0.0881958;-0.0672913;-0.0920105;-0.105133;-0.0820923;-0.0770569;-0.0756836;-0.0686646;-0.0814819;-0.0923157;-0.0761414;-0.0566101;-0.0595093;-0.0444031;-0.0540161;-0.0617981;-0.0541687;-0.0299072;-0.019989;0.027771;0.0770569;0.131226;0.0706482;-0.019989;-0.0610352;-0.055542;-0.0694275;-0.0743103;-0.0801086;0.74295;0.406647;-0.630798;-0.0857544;-0.0549316;-0.0300598;-0.00457764;0.00686646;0.025177;0.0238037;0.0410461;0.0785828;0.113068;0.149841;0.172882;0.179749;0.211182;0.236816;0.197601;0.0823975;-0.0434875;-0.138702;-0.164948;-0.141754;-0.102997;-0.0920105;-0.0720215;-0.0912476;-0.096283;-0.0871277;-0.0770569;-0.0732422;-0.063324;-0.0791931;-0.0820923;-0.0726318;-0.0624084;-0.0485229;-0.0482178;-0.0648499;-0.058136;-0.0378418;-0.0343323;0.00640869;0.0785828;0.0843811;0.0912476;0.00610352;-0.071106;-0.0547791;-0.0511169;-0.0700378;-0.0741577;0.129089;1.28998;-0.556641;-0.286407;-0.0186157;-0.0524902;-0.0346375;-0.00595093;0.0146484;0.0244141;0.0375366;0.0543213;0.0762939;0.12207;0.156708;0.193176;0.195923;0.193787;0.211182;0.142059;-0.00106812;-0.101624;-0.149078;-0.158539;-0.126648;-0.0930786;-0.0737;-0.0845337;-0.0857544;-0.0904846;-0.0849915;-0.0770569;-0.0617981;-0.0756836;-0.0874329;-0.0811768;-0.0779724;-0.0396729;-0.0575256;-0.0431824;-0.0582886;-0.0558472;-0.0421143;-0.0184631;0.0492859;0.0753784;0.135193;0.0392151;-0.0712585;-0.0488281;-0.035553;-0.0546265;-0.0640869;-0.0263977;1.06674;-0.100098;-0.378113;-0.0410461;-0.0350952;-0.0193787;-0.00106812;0.0152588;0.040741;0.0465393;0.0559998;0.0656128;0.0984192;0.141144;0.172729;0.187073;0.182343;0.196838;0.159149;0.0576782;-0.0567627;-0.119019;-0.135193;-0.12207;-0.10376;-0.0735474;-0.0682068;-0.0688171;-0.0985718;-0.0750732;-0.0852966;-0.0680542;-0.0598145;-0.0657654;-0.0773621;-0.0849915;-0.052948;-0.0463867;-0.0320435;-0.035553;-0.055542;-0.0572205;-0.0335693;-0.014801;0.0561523;0.0778198;0.125122;0.0567627;-0.0642395;-0.0570679;-0.0514221;-0.0595093;-0.0590515;-0.0543213;1.07513;0.118713;-0.471954;-0.0224304;-0.0437927;-0.0366211;-0.0117493;0.0177002;0.0350952;0.0488281;0.0563049;0.0790405;0.105743;0.147247;0.189056;0.211029;0.217743;0.196075;0.18158;0.0787354;-0.0575256;-0.14267;-0.158997;-0.142059;-0.109253;-0.0845337;-0.0648499;-0.0830078;-0.098114;-0.0840759;-0.0872803;-0.0753784;-0.0564575;-0.0694275;-0.0848389;-0.0733948;-0.062561;-0.045166;-0.0480652;-0.0434875;-0.0268555;-0.052948;-0.0404358;-0.0315857;-0.0114441;0.0646973;0.0874329;0.115509;0.0250244;-0.0657654;-0.0567627;-0.0747681;-0.0570679;-0.0643921;0.0596619;1.31317;-0.464478;-0.340424;-0.0238037;-0.0624084;-0.0413513;-0.00274658;0.0202942;0.0105286;0.0323486;0.0453186;0.0796509;0.118561;0.165405;0.182648;0.184631;0.211487;0.2211;0.162506;0.0205994;-0.0973511;-0.157013;-0.157166;-0.134735;-0.0953674;-0.0819397;-0.0727844;-0.0866699;-0.100708;-0.0926208;-0.0657654;-0.0715637;-0.0769043;-0.0897217;-0.0785828;-0.0770569;-0.0418091;-0.0448608;-0.0556946;-0.0498962;-0.0576782;-0.0428772;-0.0224304;-0.0196838;-0.0062561;0.0527954;0.0932312;0.0994873;0.010376;-0.0575256;-0.0622559;-0.0732422;-0.0617981;-0.0714111;0.368042;0.728912;-0.553894;-0.216522;-0.0253296;-0.0209045;0.0202942;0.0169373;0.0224304;0.0346375;0.043335;0.0608826;0.109558;0.125122;0.145264;0.142517;0.189972;0.197449;0.209503;0.119476;-0.00686646;-0.114288;-0.148621;-0.123291;-0.0942993;-0.0811768;-0.0770569;-0.0958252;-0.0886536;-0.0933838;-0.0601196;-0.0662231;-0.0752258;-0.0854492;-0.087738;-0.0782776;-0.0509644;-0.0444031;-0.0564575;-0.0492859;-0.0569153;-0.045929;-0.0372314;-0.00808716;0.0286865;0.0604248;0.130463;0.0708008;-0.0340271;-0.0668335;-0.0517273;-0.0796509;-0.0654602;-0.0709534;0.883026;0.143585;-0.557709;-0.090332;-0.0416565;-0.0271606;-0.000610352;-0.000305176;0.0111389;0.0340271;0.0395203;0.0852966;0.10498;0.149994;0.153809;0.204163;0.201721;0.221405;0.19043;0.0634766;-0.0726318;-0.137329;-0.1651;-0.133362;-0.109253;-0.0935364;-0.0933838;-0.0843811;-0.0939941;-0.0920105;-0.0828552;-0.0675964;-0.067749;-0.0987244;-0.0785828;-0.080719;-0.0595093;-0.0454712;-0.043335;-0.0712585;-0.0543213;-0.0567627;-0.0267029;-0.0305176;-0.0311279;-0.0149536;0.0660706;0.100403;0.127869;0.0175476;-0.0871277;-0.0706482;-0.0862122;-0.057373;-0.045166;0.275116;1.2439;-0.569611;-0.239105;-0.0109863;-0.0338745;-0.00991821;-0.0154114;-0.0267029;0.0209045;0.0317383;0.0796509;0.101471;0.115814;0.128021;0.184174;0.207367;0.24765;0.237579;0.133057;-0.0138855;-0.126648;-0.160217;-0.141144;-0.116272;-0.10849;-0.114594;-0.107422;-0.0944519;-0.0714111;-0.0775146;-0.0785828;-0.0952148;-0.0952148;-0.0927734;-0.0672913;-0.0579834;-0.0541687;-0.0828552;-0.068512;-0.0535583;-0.0317383;-0.0325012;-0.0344849;-0.052948;-0.0497437;-0.0437927;0.0170898;0.085907;0.110931;0.0856018;-0.0259399;-0.0804138;-0.0584412;-0.045929;-0.0398254;-0.0746155;0.298462;1.10413;-0.559692;-0.201569;-0.0166321;-0.0338745;-0.0349426;-0.00442505;0.0189209;0.0325012;0.057373;0.0515747;0.0827026;0.107117;0.147552;0.190125;0.198059;0.194092;0.184174;0.122528;0.0201416;-0.0926208;-0.143127;-0.154572;-0.136719;-0.117493;-0.0871277;-0.0862122;-0.0828552;-0.098114;-0.0997925;-0.0901794;-0.0758362;-0.0784302;-0.065918;-0.08255;-0.0822449;-0.065918;-0.0476074;-0.030365;-0.0468445;-0.055542;-0.0564575;-0.0474548;-0.0224304;0.0230408;0.0765991;0.0952148;0.0631714;-0.0195312;-0.0631714;-0.0483704;-0.0543213;-0.0642395;-0.0872803;0.628815;0.657043;-0.532074;-0.13916;-0.0209045;-0.0308228;-0.000762939;0.0187683;0.038147;0.0534058;0.0463867;0.0604248;0.0996399;0.137329;0.175323;0.191956;0.190887;0.203247;0.196381;0.112152;-0.0204468;-0.11673;-0.143127;-0.138855;-0.10498;-0.091095;-0.058136;-0.0810242;-0.0854492;-0.098877;-0.0799561;-0.063324;-0.0598145;-0.0790405;-0.0785828;-0.0769043;-0.0585938;-0.0479126;-0.0386047;-0.0492859;-0.0547791;-0.0531006;-0.0418091;-0.0193787;-0.0152588;-0.00778198;0.0550842;0.0946045;0.10498;0.0242615;-0.0614929;-0.0643921;-0.0842285;-0.0836182;-0.0704956;0.184174;1.17325;-0.601501;-0.286102;-0.0395203;-0.0535583;-0.00518799;-0.0111389;-0.00488281;0.00839233;0.0308228;0.0637817;0.090332;0.133362;0.148773;0.177612;0.20401;0.218658;0.23056;0.145111;-0.00961304;-0.132446;-0.180969;-0.161133;-0.128021;-0.112152;-0.120697;-0.102539;-0.0994873;-0.0975037;-0.0798035;-0.0834656;-0.093689;-0.092926;-0.103302;-0.0862122;-0.0535583;-0.0611877;-0.0631714;-0.072937;-0.0657654;-0.0566101;-0.042572;-0.0164795;-0.0392151;-0.0469971;0.0334167;0.0779724;0.144043;0.0733948;-0.0369263;-0.0901794;-0.0901794;-0.0802612;-0.0250244;-0.0691223;0.796661;0.618591;-0.641174;-0.0540161;-0.0358582;-0.0175476;-0.0151062;-0.0309753;-0.00442505;0.0274658;0.0617981;0.0863647;0.100555;0.116272;0.153198;0.191498;0.246429;0.25177;0.198364;0.0764465;-0.070343;-0.144043;-0.135956;-0.124969;-0.121918;-0.122375;-0.110779;-0.0744629;-0.0848389;-0.0686646;-0.0830078;-0.0991821;-0.0946045;-0.0839233;-0.0704956;-0.0567627;-0.0709534;-0.0788879;-0.0816345;-0.0494385;-0.0265503;-0.0405884;-0.0299072;-0.055542;-0.0404358;-0.0366211;-0.0160217;0.0572205;0.0796509;0.120392;0.0215149;-0.0622559;-0.0595093;-0.0413513;-0.055542;-0.0671387;0.00534058;1.10016;-0.227356;-0.337067;-0.0378418;-0.040741;-0.0247192;0.00305176;0.0184631;0.0431824;0.0439453;0.0572205;0.0721741;0.103607;0.151062;0.174103;0.202332;0.178528;0.20401;0.169525;0.0723267;-0.0454712;-0.119324;-0.136566;-0.129852;-0.101776;-0.0683594;-0.0630188;-0.0717163;-0.101471;-0.0959778;-0.0698853;-0.067749;-0.0489807;-0.0759888;-0.070343;-0.0799561;-0.0582886;-0.0398254;-0.0392151;-0.0390625;-0.052948;-0.0570679;-0.0361633;0.0163269;0.0717163;0.133667;0.0836182;-0.0436401;-0.0671387;-0.0546265;-0.0416565;-0.0527954;-0.0830078;0.751495;0.55542;-0.570984;-0.0975037;-0.0312805;-0.0239563;-0.0100708;-0.00244141;0.0335693;0.0546265;0.0590515;0.0787354;0.0956726;0.143585;0.19577;0.215149;0.24765;0.240479;0.197449;0.0924683;-0.0315857;-0.115814;-0.166321;-0.154266;-0.126648;-0.10788;-0.0799561;-0.0708008;-0.0698853;-0.0991821;-0.0973511;-0.0727844;-0.0592041;-0.0602722;-0.0761414;-0.0814819;-0.078125;-0.063324;-0.0370789;-0.0364685;-0.0338745;-0.0524902;-0.040741;-0.0259399;-0.0227356;0.035553;0.0888062;0.103912;0.0854492;-0.000610352;-0.0717163;-0.0549316;-0.0582886;-0.0531006;-0.0733948;0.352325;1.2178;-0.651245;-0.157166;-0.0402832;-0.0395203;-0.0238037;0.00167847;0.0193787;0.0334167;0.0387573;0.0556946;0.0970459;0.128174;0.185852;0.195465;0.240021;0.236053;0.22995;0.152588;-0.0222778;-0.130005;-0.181274;-0.188293;-0.122375;-0.112762;-0.0819397;-0.0901794;-0.0900269;-0.0909424;-0.0964355;-0.0680542;-0.0868225;-0.0672913;-0.102997;-0.0776672;-0.0712585;-0.0476074;-0.0578308;-0.0642395;-0.0810242;-0.0474548;-0.0489807;-0.045929;-0.0216675;-0.0405884;-0.0473022;-0.0395203;0.058136;0.0898743;0.141144;0.0198364;-0.0770569;-0.0656128;-0.062561;-0.0463867;-0.037384;-0.0454712;1.01028;0.0088501;-0.514526;-0.0210571;-0.0384521;-0.0195312;-0.0282288;-0.0248718;0.0254822;0.045929;0.062561;0.080719;0.0944519;0.124054;0.165253;0.217133;0.252075;0.232849;0.184174;0.0442505;-0.0694275;-0.128784;-0.130463;-0.13855;-0.136566;-0.118866;-0.0920105;-0.0660706;-0.0650024;-0.092926;-0.0959778;-0.107422;-0.093689;-0.0674438;-0.0614929;-0.0666809;-0.0840759;-0.0706482;-0.0590515;-0.0483704;-0.0216675;-0.0465393;-0.0515747;-0.0460815;-0.0233459;-0.0170898;0.0241089;0.0706482;0.0953674;0.0744629;-0.0411987;-0.0506592;-0.0534058;-0.068512;-0.0602722;-0.0976562;0.706177;0.557556;-0.509338;-0.14679;-0.0289917;-0.0408936;-0.00671387;0.0132751;0.0326538;0.039978;0.0454712;0.0506592;0.0892639;0.143738;0.16983;0.192566;0.20813;0.201721;0.211182;0.115662;-0.0268555;-0.116425;-0.155334;-0.150146;-0.105133;-0.0810242;-0.0759888;-0.0810242;-0.0947571;-0.101013;-0.0834656;-0.0509644;-0.0650024;-0.0808716;-0.0906372;-0.0770569;-0.0691223;-0.0483704;-0.0361633;-0.0502014;-0.0584412;-0.0564575;-0.0396729;-0.0109863;-0.032196;-0.0170898;-0.0344849;0.0268555;0.0682068;0.164642;0.0614929;-0.0531006;-0.0741577;-0.087738;-0.0735474;-0.0396729;-0.0326538;0.999908;0.265961;-0.55069;-0.0621033;-0.030365;-0.00656128;-0.0192261;-0.0180054;-0.00259399;0.0271606;0.0604248;0.098877;0.0984192;0.108643;0.16571;0.20462;0.236969;0.262909;0.195618;0.0666809;-0.0823975;-0.15976;-0.158539;-0.139008;-0.138855;-0.121613;-0.117493;-0.0889587;-0.0831604;-0.0779724;-0.102844;-0.10498;-0.10025;-0.0770569;-0.0869751;-0.0494385;-0.0930786;-0.0827026;-0.080719;-0.0558472;-0.0453186;-0.0361633;-0.0526428;-0.062561;-0.0541687;-0.0340271;-0.0271606;-0.0271606;-0.014801;0.0550842;0.0747681;0.118561;0.0415039;-0.0671387;-0.0611877;-0.0886536;-0.08255;-0.0595093;0.00335693;1.30615;-0.219727;-0.501556;-0.0106812;-0.059967;-0.0216675;-0.0151062;-0.0177002;-0.0100708;0.0146484;0.038147;0.0874329;0.10788;0.122986;0.144653;0.203247;0.231171;0.251923;0.187683;0.0474548;-0.102234;-0.175476;-0.173187;-0.145874;-0.11322;-0.13092;-0.116882;-0.111542;-0.0930786;-0.0932312;-0.0856018;-0.102081;-0.106506;-0.107269;-0.0942993;-0.0730896;-0.0723267;-0.072937;-0.070343;-0.0743103;-0.0595093;-0.0389099;-0.0317383;-0.0540161;-0.057373;-0.0549316;-0.0286865;0.01297;0.072937;0.121307;0.0654602;-0.0556946;-0.0764465;-0.0556946;-0.0492859;-0.0559998;-0.0993347;0.729065;0.45929;-0.533447;-0.114288;-0.00900269;-0.0442505;-0.0196838;0.00900269;0.0334167;0.0456238;0.0556946;0.0547791;0.0691223;0.121155;0.163574;0.199585;0.187225;0.197449;0.175781;0.106201;0.0108337;-0.0950623;-0.1474;-0.135651;-0.126801;-0.108643;-0.070343;-0.071106;-0.0798035;-0.10376;-0.093689;-0.0889587;-0.0642395;-0.0721741;-0.0778198;-0.0822449;-0.0799561;-0.0595093;-0.0463867;-0.0270081;-0.0489807;-0.0514221;-0.050354;-0.0299072;-0.0128174;0.0491333;0.0704956;0.127258;0.0564575;-0.0440979;-0.0509644;-0.0462341;-0.0723267;-0.058136;-0.0408936;1.08368;0.0746155;-0.431671;-0.0527954;-0.0526428;-0.0172424;-0.0160217;0.014801;0.0427246;0.0544739;0.0427246;0.0752258;0.105438;0.155029;0.200806;0.216675;0.222626;0.230255;0.198364;0.0840759;-0.057373;-0.144043;-0.156555;-0.155334;-0.125275;-0.0964355;-0.0778198;-0.078125;-0.0958252;-0.0944519;-0.085907;-0.0708008;-0.0717163;-0.0663757;-0.0917053;-0.0802612;-0.0630188;-0.0421143;-0.0453186;-0.0590515;-0.0500488;-0.058136;-0.0372314;-0.0180054;0.00289917;0.080719;0.0798035;0.10437;0.0257874;-0.0637817;-0.0559998;-0.0631714;-0.0700378;-0.0761414;0.148468;1.34003;-0.553894;-0.289764;-0.0370789;-0.0488281;-0.0172424;-0.00183105;0.00961304;0.0190735;0.0302124;0.0457764;0.101471;0.130463;0.162201;0.184326;0.222473;0.22644;0.251007;0.180969;0.010376;-0.111084;-0.182648;-0.173645;-0.153503;-0.102997;-0.0958252;-0.112915;-0.109711;-0.0920105;-0.0839233;-0.0862122;-0.0802612;-0.0932312;-0.0964355;-0.0993347;-0.0717163;-0.0538635;-0.0570679;-0.0590515;-0.0775146;-0.0675964;-0.0419617;-0.0338745;-0.0302124;-0.0375366;-0.0209045;0.0605774;0.11673;0.110626;-0.018158;-0.0665283;-0.0765991;-0.0787354;-0.0401306;-0.040741;0.411072;1.0704;-0.610046;-0.1828;-0.0175476;-0.020752;-0.00747681;-0.00793457;-0.00747681;0.0187683;0.0595093;0.0836182;0.0953674;0.115967;0.133972;0.175476;0.225983;0.238037;0.240021;0.122223;-0.0274658;-0.122681;-0.150757;-0.133209;-0.122833;-0.126343;-0.100098;-0.0950623;-0.0756836;-0.0558472;-0.0669861;-0.0878906;-0.104523;-0.0946045;-0.0790405;-0.0552368;-0.052948;-0.0744629;-0.0636292;-0.0535583;-0.0457764;-0.0334167;-0.0331116;-0.0357056;-0.0511169;0.00350952;0.0556946;0.107574;0.108337;0.000915527;-0.0773621;-0.0848389;-0.0590515;-0.0366211;-0.0619507;0.244293;1.05789;-0.565033;-0.243988;-0.000762939;-0.0140381;-0.0138855;-0.0205994;0.017395;0.0437927;0.0654602;0.0842285;0.0798035;0.0970459;0.13855;0.19928;0.228119;0.237579;0.214233;0.126953;0.00183105;-0.0914001;-0.126953;-0.127258;-0.124512;-0.116425;-0.104675;-0.0869751;-0.058136;-0.0662231;-0.096283;-0.0971985;-0.0921631;-0.0740051;-0.0648499;-0.0543213;-0.0726318;-0.0767517;-0.0616455;-0.0453186;-0.0263977;-0.0395203;-0.0395203;-0.0410461;-0.0506592;-0.0186157;-0.00778198;-0.0106812;0.0401306;0.0746155;0.128479;0.0689697;-0.0265503;-0.052948;-0.0616455;-0.0564575;-0.0537109;-0.0508118;0.91629;0.191193;-0.559387;-0.0732422;-0.0544739;0.00335693;-0.00289917;0.0160217;0.0202942;0.0239563;0.0524902;0.083313;0.109406;0.161743;0.169678;0.193481;0.238647;0.255585;0.233612;0.0979614;-0.0561523;-0.149078;-0.175171;-0.143585;-0.115509;-0.0917053;-0.10437;-0.103912;-0.0836182;-0.0741577;-0.0720215;-0.0744629;-0.0935364;-0.093689;-0.0822449;-0.0631714;-0.0578308;-0.0604248;-0.0724792;-0.0817871;-0.0492859;-0.0294495;-0.0241089;-0.0215149;-0.0430298;-0.0434875;-0.0415039;-0.00915527;0.0283813;0.083313;0.106201;0.0878906;-0.000915527;-0.0650024;-0.0469971;-0.0485229;-0.0508118;-0.0724792;0.16861;1.34201;-0.432739;-0.244904;-0.0141907;-0.0535583;-0.0352478;0.00976562;0.0169373;0.0279236;0.0306702;0.0526428;0.0785828;0.109253;0.164795;0.196686;0.225372;0.238342;0.233765;0.186005;0.0453186;-0.108795;-0.174561;-0.18219;-0.163879;-0.120392;-0.0999451;-0.0947571;-0.101166;-0.10788;-0.0956726;-0.0862122;-0.0732422;-0.0843811;-0.0830078;-0.0889587;-0.0891113;-0.0605774;-0.043335;-0.0520325;-0.0469971;-0.0595093;-0.0486755;-0.0233459;-0.0205994;-0.020752;-0.0387573;-0.0494385;-0.0286865;-0.00946045;0.0480652;0.0769043;0.139923;0.0384521;-0.0404358;-0.0495911;-0.0495911;-0.0491333;-0.0440979;-0.0846863;0.879517;0.327148;-0.508881;-0.0799561;-0.0314331;-0.0309753;-0.0180054;0.00274658;0.0375366;0.0497437;0.0354004;0.0614929;0.0878906;0.123138;0.159149;0.187531;0.203857;0.198669;0.182648;0.0964355;-0.0111389;-0.115509;-0.170441;-0.149841;-0.132446;-0.109711;-0.0679016;-0.0663757;-0.0975037;-0.0907898;-0.0784302;-0.0630188;-0.0666809;-0.070343;-0.0801086;-0.085144;-0.0733948;-0.0544739;-0.0395203;-0.0469971;-0.0462341;-0.0674438;-0.0497437;-0.0286865;-0.0218201;0.0263977;0.0593567;0.0958252;0.0587463;-0.0328064;-0.0498962;-0.0669861;-0.0665283;-0.058136;-0.0735474;0.761719;0.535431;-0.527344;-0.13504;-0.0236511;-0.0285339;0.0164795;0.0141907;0.0215149;0.0396729;0.0279236;0.0871277;0.118408;0.145721;0.184784;0.202637;0.235748;0.243225;0.235596;0.117645;-0.0257874;-0.142212;-0.174713;-0.143738;-0.117035;-0.0994873;-0.0842285;-0.0901794;-0.0946045;-0.0802612;-0.0691223;-0.0726318;-0.0657654;-0.0852966;-0.0836182;-0.0691223;-0.0505066;-0.0508118;-0.0447083;-0.0553894;-0.0508118;-0.0465393;-0.035553;-0.018158;-0.022583;-0.0401306;-0.00549316;0.0794983;0.132904;0.118408;0.00228882;-0.0842285;-0.0796509;-0.0730896;-0.0349426;-0.0460815;0.365906;1.19095;-0.642395;-0.161896;-0.0196838;-0.0213623;-0.0297546;-0.0253296;-0.0109863;0.0202942;0.0531006;0.0753784;0.0970459;0.106201;0.12558;0.20401;0.255432;0.267334;0.254974;0.139465;-0.0119019;-0.12146;-0.170441;-0.156097;-0.132446;-0.134583;-0.123291;-0.0973511;-0.0772095;-0.0714111;-0.0773621;-0.105286;-0.105438;-0.0917053;-0.0718689;-0.0732422;-0.0735474;-0.0886536;-0.0764465;-0.0654602;-0.045929;-0.0363159;-0.0434875;-0.057373;-0.0506592;-0.0445557;-0.03479;-0.000762939;0.0570679;0.068512;0.128326;0.0398254;-0.045929;-0.0553894;-0.0546265;-0.0691223;-0.058136;-0.0309753;1.06552;0.159149;-0.470123;-0.0482178;-0.0614929;-0.0253296;-0.00854492;0.0228882;0.0376892;0.0245667;0.0343323;0.0630188;0.116272;0.1297;0.162506;0.188599;0.208435;0.225677;0.190277;0.10376;-0.0428772;-0.155792;-0.175018;-0.158997;-0.120239;-0.104828;-0.104828;-0.0939941;-0.101166;-0.098877;-0.0810242;-0.0846863;-0.0819397;-0.100555;-0.103607;-0.0732422;-0.0622559;-0.0572205;-0.0500488;-0.0691223;-0.065918;-0.0532532;-0.0386047;-0.0201416;-0.0460815;0.0483704;0.0663757;0.102386;0.0401306;-0.0756836;-0.0642395;-0.0779724;-0.0605774;-0.0772095;0.107727;1.17722;-0.486908;-0.332642;-0.0462341;-0.0444031;0.00915527;0.00762939;0.00839233;0.0210571;0.0239563;0.0642395;0.0953674;0.119934;0.136108;0.17334;0.198822;0.224762;0.245972;0.175934;0.0413513;-0.0985718;-0.163269;-0.130768;-0.119629;-0.100098;-0.0875854;-0.100555;-0.0904846;-0.0941467;-0.0668335;-0.0631714;-0.075531;-0.0878906;-0.0979614;-0.0752258;-0.065155;-0.0437927;-0.062561;-0.067749;-0.0547791;-0.0534058;-0.0195312;-0.0270081;-0.0297546;-0.0331116;-0.00305176;0.0672913;0.149231;0.109863;-0.0141907;-0.0932312;-0.0752258;-0.0866699;-0.0297546;-0.0540161;0.544739;0.930786;-0.679321;-0.13443;-0.0259399;-0.0291443;-0.00946045;-0.0314331;0.00320435;0.0227356;0.0541687;0.0787354;0.101166;0.111389;0.144501;0.200958;0.241852;0.265656;0.253754;0.120392;-0.0343323;-0.120697;-0.165253;-0.151215;-0.130615;-0.122528;-0.117645;-0.096283;-0.0906372;-0.0695801;-0.080719;-0.100861;-0.0956726;-0.0942993;-0.0846863;-0.0656128;-0.062561;-0.0909424;-0.0721741;-0.0645447;-0.0389099;-0.0434875;-0.0436401;-0.0532532;-0.0492859;-0.0338745;-0.0296021;-0.0128174;0.0209045;0.0720215;0.0973511;0.0932312;0.0106812;-0.0683594;-0.0579834;-0.0793457;-0.0823975;-0.0720215;0.222778;1.30859;-0.620728;-0.249786;-0.0410461;-0.0546265;-0.0276184;-0.015564;-0.0323486;0.00213623;0.0138855;0.0518799;0.0817871;0.120087;0.135803;0.157623;0.19989;0.237885;0.241852;0.173187;-0.00213623;-0.123444;-0.176392;-0.176849;-0.14801;-0.117798;-0.101776;-0.10498;-0.107574;-0.098114;-0.0823975;-0.075531;-0.091095;-0.0932312;-0.0839233;-0.0785828;-0.0483704;-0.0558472;-0.0656128;-0.0666809;-0.0706482;-0.0556946;-0.0405884;-0.032959;-0.0398254;-0.0456238;-0.0396729;-0.0231934;0.0184631;0.0720215;0.123291;0.0714111;-0.0349426;-0.0669861;-0.0592041;-0.0357056;-0.04776;-0.0627136;0.393066;0.677185;-0.535736;-0.19516;-0.00411987;-0.0341797;-0.00244141;0.00289917;0.0350952;0.0497437;0.0679016;0.0486755;0.0816345;0.111237;0.166931;0.18692;0.218506;0.19516;0.205536;0.12558;0.0154114;-0.0810242;-0.127106;-0.13855;-0.120697;-0.106659;-0.0765991;-0.0767517;-0.0794983;-0.09552;-0.0970459;-0.0810242;-0.0616455;-0.0679016;-0.0700378;-0.0868225;-0.0846863;-0.0639343;-0.0456238;-0.0485229;-0.0453186;-0.0534058;-0.0614929;-0.0390625;-0.0259399;-0.0163269;0;0.0473022;0.0769043;0.126038;0.0430298;-0.0489807;-0.0567627;-0.0743103;-0.0630188;-0.0537109;0.0627136;1.24741;-0.430603;-0.369568;-0.0257874;-0.0411987;0.00259399;0.0115967;0.00427246;0.0198364;0.043335;0.0602722;0.0956726;0.124207;0.147095;0.171661;0.223389;0.241394;0.26062;0.213776;0.0549316;-0.096283;-0.144806;-0.163879;-0.123596;-0.107422;-0.101776;-0.0958252;-0.0906372;-0.0813293;-0.0744629;-0.065155;-0.0839233;-0.0820923;-0.0927734;-0.0740051;-0.0491333;-0.055542;-0.0604248;-0.0669861;-0.0550842;-0.0537109;-0.0262451;-0.019989;-0.0404358;-0.0254822;-0.0411987;-0.0238037;0.0213623;0.11261;0.122681;0.0923157;-0.00808716;-0.0579834;-0.0544739;-0.0436401;-0.0444031;-0.0740051;0.244141;1.16257;-0.612335;-0.220795;-0.00915527;-0.0453186;-0.0375366;-0.00717163;0.00244141;0.04776;0.0462341;0.0585938;0.0848389;0.10849;0.174561;0.201721;0.240479;0.243225;0.23468;0.15625;0.0335693;-0.0878906;-0.167084;-0.168915;-0.153809;-0.125885;-0.0965881;-0.0872803;-0.0785828;-0.0970459;-0.107117;-0.0914001;-0.0888062;-0.0756836;-0.0959778;-0.0823975;-0.0932312;-0.0758362;-0.0486755;-0.0502014;-0.0511169;-0.0747681;-0.0532532;-0.0454712;-0.0325012;-0.0267029;-0.0402832;-0.0363159;-0.027771;0.0370789;0.0810242;0.149994;0.0628662;-0.0630188;-0.0695801;-0.0608826;-0.0479126;-0.0465393;-0.0700378;0.744629;0.601654;-0.564423;-0.0799561;-0.0187683;-0.0314331;-0.0282288;-0.0157166;0.00366211;0.0280762;0.0708008;0.0689697;0.0741577;0.0997925;0.15213;0.200043;0.213928;0.22171;0.189209;0.110626;-0.0146484;-0.105743;-0.137024;-0.144653;-0.137939;-0.121155;-0.0932312;-0.0718689;-0.0778198;-0.0723267;-0.0846863;-0.0946045;-0.0817871;-0.0643921;-0.0663757;-0.0643921;-0.063324;-0.0701904;-0.0398254;-0.0437927;-0.0445557;-0.0315857;-0.0518799;-0.0378418;-0.0354004;0.00518799;0.0663757;0.121307;0.0724792;-0.0157166;-0.0770569;-0.0436401;-0.0511169;-0.055542;-0.0714111;0.394592;0.721436;-0.561981;-0.194702;-0.00808716;-0.0379944;-0.0123596;-0.00656128;0.0160217;0.0511169;0.0534058;0.0527954;0.0764465;0.112915;0.160065;0.192413;0.211487;0.215149;0.212555;0.12146;0.00793457;-0.0862122;-0.141144;-0.156555;-0.125427;-0.114594;-0.0854492;-0.0794983;-0.0732422;-0.1091;-0.102234;-0.0767517;-0.0784302;-0.0657654;-0.0738525;-0.0820923;-0.0793457;-0.0660706;-0.0502014;-0.0285339;-0.0473022;-0.0527954;-0.0616455;-0.0402832;-0.0193787;-0.0143433;0.000305176;0.0791931;0.0976562;0.100555;0.0187683;-0.0582886;-0.0698853;-0.0749207;-0.0590515;-0.0639343;0.300446;1.21796;-0.645294;-0.234222;-0.0274658;-0.0402832;-0.00839233;0.00473022;-0.00289917;-0.00259399;0.0367737;0.0561523;0.0944519;0.128479;0.137482;0.169525;0.218964;0.241699;0.242157;0.181122;0.00732422;-0.120544;-0.162354;-0.164185;-0.139008;-0.110016;-0.102081;-0.111237;-0.116425;-0.0979614;-0.0819397;-0.0846863;-0.100098;-0.111542;-0.110016;-0.0904846;-0.0637817;-0.0788879;-0.071106;-0.0866699;-0.072937;-0.0561523;-0.0393677;-0.0544739;-0.0457764;-0.0535583;-0.0602722;-0.010376;0.0674438;0.100098;0.0999451;-0.0088501;-0.0975037;-0.0730896;-0.0585938;-0.0654602;-0.0553894;0.111694;1.27441;-0.543365;-0.288086;-0.0164795;-0.0382996;-0.038147;-0.0358582;-0.0131226;0.0289917;0.0466919;0.055542;0.0540161;0.0738525;0.13504;0.176544;0.203705;0.210571;0.218353;0.151062;0.0196838;-0.0819397;-0.145569;-0.160065;-0.155029;-0.135651;-0.117493;-0.0805664;-0.0820923;-0.0924683;-0.10498;-0.0939941;-0.0993347;-0.0822449;-0.0834656;-0.0828552;-0.0946045;-0.0756836;-0.0669861;-0.0408936;-0.0480652;-0.0593567;-0.0550842;-0.0621033;-0.0494385;-0.0245667;0.0326538;0.0587463;0.111694;0.0448608;-0.0744629;-0.0531006;-0.0715637;-0.0585938;-0.067749;-0.0827026;1.06796;-0.0137329;-0.449371;-0.0715637;-0.0498962;-0.0219727;-0.0219727;0.00778198;0.0350952;0.0392151;0.0338745;0.0720215;0.0875854;0.131683;0.160065;0.210419;0.201111;0.209961;0.193939;0.0932312;-0.0415039;-0.116882;-0.15564;-0.136414;-0.123291;-0.096283;-0.0764465;-0.0840759;-0.104828;-0.0907898;-0.0917053;-0.0782776;-0.0688171;-0.0746155;-0.0933838;-0.0773621;-0.0804138;-0.0495911;-0.0466919;-0.050354;-0.0566101;-0.0550842;-0.04776;-0.0349426;-0.0202942;-0.0213623;-0.00701904;0.0653076;0.115356;0.105438;0.00808716;-0.0648499;-0.0669861;-0.0761414;-0.06073;-0.0578308;0.276947;1.09695;-0.648346;-0.251007;-0.0279236;-0.0378418;-0.00320435;-0.0183105;-0.0125122;0.00213623;0.0332642;0.0704956;0.0941467;0.122986;0.137939;0.160675;0.231934;0.245056;0.259399;0.152893;0.00427246;-0.122223;-0.176239;-0.141907;-0.138092;-0.113525;-0.124359;-0.106812;-0.102234;-0.0785828;-0.0778198;-0.0827026;-0.102386;-0.0993347;-0.0798035;-0.0627136;-0.0717163;-0.0691223;-0.0822449;-0.0743103;-0.0511169;-0.0445557;-0.0431824;-0.0404358;-0.0537109;-0.0462341;-0.0445557;-0.0346375;-0.0062561;0.0811768;0.0753784;0.101776;0.0106812;-0.0679016;-0.0575256;-0.0642395;-0.0762939;-0.0704956;0.0588989;1.31332;-0.23819;-0.345459;-0.0312805;-0.0619507;-0.0289917;-0.00473022;0.00320435;0.0212097;0.0166321;0.0378418;0.0701904;0.108337;0.141602;0.184937;0.195007;0.202026;0.235596;0.200348;0.0637817;-0.0686646;-0.150909;-0.175476;-0.155487;-0.120544;-0.0848389;-0.0891113;-0.0967407;-0.0956726;-0.0965881;-0.0598145;-0.067749;-0.0869751;-0.091095;-0.093689;-0.065918;-0.0517273;-0.0509644;-0.0588989;-0.0411987;-0.0602722;-0.045929;-0.0219727;-0.0135803;-0.0259399;-0.0236511;0.0285339;0.055542;0.157776;0.0689697;-0.0570679;-0.0535583;-0.0704956;-0.0616455;-0.037384;-0.0215149;1.13724;-0.216522;-0.408936;-0.055542;-0.012207;0.0012207;0.00793457;-0.00808716;0.0198364;0.0418091;0.0698853;0.0811768;0.110931;0.122833;0.147705;0.186005;0.237732;0.240936;0.187836;0.065918;-0.063324;-0.134735;-0.134583;-0.120392;-0.110168;-0.117188;-0.0894165;-0.0862122;-0.0822449;-0.083313;-0.0697327;-0.0895691;-0.108185;-0.0630188;-0.0653076;-0.0549316;-0.0627136;-0.0741577;-0.0595093;-0.062561;-0.0312805;-0.0285339;-0.0286865;-0.0453186;-0.0526428;-0.0273132;0.00732422;0.0796509;0.115509;0.110168;0.0132751;-0.0698853;-0.0509644;-0.045929;-0.0392151;-0.0515747;0.110931;1.18622;-0.530396;-0.300446;-0.00106812;-0.0422668;-0.0183105;-0.0135803;0.0177002;0.0288391;0.0584412;0.0712585;0.0752258;0.111542;0.167999;0.199738;0.235291;0.237579;0.238495;0.165253;0.0643921;-0.0721741;-0.147858;-0.165405;-0.152893;-0.118408;-0.0863647;-0.0770569;-0.0671387;-0.090332;-0.108337;-0.0790405;-0.0706482;-0.0692749;-0.06073;-0.0758362;-0.0796509;-0.0660706;-0.045166;-0.0437927;-0.0384521;-0.0547791;-0.0437927;-0.0378418;-0.0213623;-0.0152588;-0.0172424;-0.0267029;-0.0297546;-0.0137329;0.0866699;0.0973511;0.141907;0.0515747;-0.0592041;-0.0531006;-0.0541687;-0.0376892;-0.0544739;-0.0727844;0.947723;0.186615;-0.567474;-0.032196;-0.0398254;-0.0491333;-0.0186157;-0.0115967;0.0128174;0.0479126;0.0494385;0.0726318;0.0628662;0.146027;0.178833;0.223846;0.244293;0.240173;0.220795;0.119934;-0.032959;-0.12085;-0.154572;-0.178528;-0.157776;-0.109406;-0.0914001;-0.0817871;-0.0837708;-0.092926;-0.108948;-0.0926208;-0.0686646;-0.0737;-0.0776672;-0.083313;-0.0801086;-0.0770569;-0.0619507;-0.045929;-0.0468445;-0.0466919;-0.0553894;-0.0465393;-0.0309753;-0.0218201;-0.0205994;-0.0367737;-0.032196;-0.0196838;0.0296021;0.106964;0.149536;0.0697327;-0.0352478;-0.0778198;-0.0511169;-0.0436401;-0.0393677;-0.0741577;0.422516;0.838013;-0.615234;-0.141449;-0.0167847;-0.0309753;-0.0332642;-0.0140381;0.0198364;0.040741;0.0511169;0.0566101;0.0746155;0.0961304;0.16098;0.220795;0.232544;0.230255;0.218811;0.140381;0.0283813;-0.0808716;-0.146942;-0.15213;-0.137177;-0.124054;-0.0883484;-0.0666809;-0.0791931;-0.0863647;-0.0938416;-0.0923157;-0.0692749;-0.0746155;-0.0570679;-0.0816345;-0.0845337;-0.0715637;-0.0593567;-0.0532532;-0.0350952;-0.068512;-0.0576782;-0.0543213;-0.0332642;-0.0132751;-0.0219727;0.000610352;0.0401306;0.122833;0.0915527;0.012207;-0.0556946;-0.0660706;-0.0718689;-0.0509644;-0.0772095;0.529938;0.508575;-0.521393;-0.193939;-0.0268555;-0.0134277;0.0131226;0.0125122;0.00610352;0.0190735;0.0437927;0.0767517;0.0901794;0.129089;0.131378;0.153809;0.191498;0.221558;0.226593;0.137939;-0.00595093;-0.105133;-0.141602;-0.118561;-0.0923157;-0.0894165;-0.098114;-0.0968933;-0.0961304;-0.0720215;-0.0810242;-0.0674438;-0.0886536;-0.0854492;-0.0816345;-0.0595093;-0.0495911;-0.0511169;-0.0575256;-0.0512695;-0.0608826;-0.0187683;-0.0285339;-0.0273132;-0.0471497;-0.0323486;0.0453186;0.0816345;0.143585;0.0518799;-0.0720215;-0.0714111;-0.0823975;-0.0460815;-0.0405884;0.0479126;1.23428;-0.239105;-0.395508;0.00228882;-0.0198364;-0.00808716;-0.0205994;0.00427246;0.0201416;0.0462341;0.0732422;0.100708;0.106659;0.1297;0.167542;0.227814;0.250397;0.263367;0.202484;0.0726318;-0.0788879;-0.140228;-0.128174;-0.133057;-0.119476;-0.118103;-0.102386;-0.0688171;-0.072937;-0.0715637;-0.0852966;-0.0949097;-0.0958252;-0.0714111;-0.0575256;-0.0680542;-0.0672913;-0.0765991;-0.0595093;-0.043335;-0.0332642;-0.0369263;-0.0309753;-0.0436401;-0.0180054;0.0912476;0.1091;0.138245;0.0233459;-0.0868225;-0.0668335;-0.0552368;-0.0450134;-0.055542;0.091095;1.31317;-0.518799;-0.323639;-0.00549316;-0.0335693;-0.0328064;-0.0239563;-0.0245667;0.0198364;0.0535583;0.0650024;0.0776672;0.0856018;0.132294;0.182343;0.228424;0.252686;0.234985;0.17868;0.0250244;-0.0920105;-0.140533;-0.149384;-0.148926;-0.139618;-0.120544;-0.0968933;-0.0830078;-0.0868225;-0.091095;-0.11261;-0.101013;-0.0865173;-0.0585938;-0.0747681;-0.0666809;-0.0823975;-0.0648499;-0.0527954;-0.0254822;-0.0285339;-0.0413513;-0.0549316;-0.0402832;0.000610352;0.0785828;0.1297;0.0914001;-0.0299072;-0.0846863;-0.0585938;-0.0505066;-0.042572;-0.0723267;0.391998;0.673065;-0.578156;-0.179901;-0.0062561;-0.0283813;-0.0250244;-0.00152588;0.0140381;0.0418091;0.0567627;0.0590515;0.063324;0.0880432;0.133209;0.18219;0.207825;0.187225;0.19455;0.123749;0.0115967;-0.0732422;-0.123901;-0.135803;-0.132294;-0.108337;-0.101318;-0.0613403;-0.0665283;-0.0787354;-0.101929;-0.0767517;-0.0762939;-0.0724792;-0.0564575;-0.0767517;-0.0810242;-0.0642395;-0.0491333;-0.0390625;-0.0309753;0.00640869;0.0440979;0.11322;0.0637817;-0.0396729;-0.0636292;-0.0779724;-0.0764465;-0.0756836;-0.0634766;0.808716;0.17395;-0.526581;-0.120239;-0.0460815;-0.0224304;0.000457764;0.00915527;0.00961304;0.022583;0.0378418;0.0828552;0.104065;0.141296;0.157776;0.189667;0.207367;0.235443;0.220642;0.0872803;-0.0515747;-0.150452;-0.171356;-0.137177;-0.112915;-0.108032;-0.0930786;-0.0990295;-0.104218;-0.0900269;-0.0828552;-0.0714111;-0.0900269;-0.10788;-0.0860596;-0.0761414;-0.0559998;-0.0500488;-0.0630188;-0.0624084;-0.0694275;-0.0462341;0.0299072;0.0846863;0.128326;0.075531;-0.043335;-0.0773621;-0.0509644;-0.0601196;-0.0621033;-0.0802612;0.582123;0.928192;-0.660706;-0.0898743;-0.0462341;-0.0436401;-0.0296021;-0.0112915;0.0202942;0.0334167;0.039978;0.0628662;0.0816345;0.11261;0.165863;0.216827;0.22934;0.237274;0.207367;0.122833;-0.00991821;-0.134888;-0.172272;-0.181122;-0.154724;-0.123596;-0.101318;-0.0808716;-0.100708;-0.108948;-0.113525;-0.091095;-0.0987244;-0.0727844;-0.0924683;-0.105133;-0.0942993;-0.0723267;-0.0524902;-0.0462341;-0.0622559;-0.0730896;-0.0627136;-0.0291443;0.065155;0.0953674;0.124359;0.017395;-0.10025;-0.080719;-0.0602722;-0.0605774;-0.0691223;-0.0889587;1.15753;0.0733948;-0.560608;0.00442505;-0.0675964;-0.0488281;-0.0421143;-0.0193787;0.00701904;0.0299072;0.0376892;0.0550842;0.0738525;0.135193;0.177155;0.220032;0.228729;0.22995;0.177002;0.0588989;-0.0482178;-0.131836;-0.17334;-0.157776;-0.131836;-0.1091;-0.0791931;-0.0791931;-0.0984192;-0.104065;-0.0968933;-0.0869751;-0.0747681;-0.0764465;-0.0747681;-0.0904846;-0.090332;-0.0708008;-0.0474548;-0.0453186;-0.0556946;-0.0646973;-0.0547791;-0.0364685;0.0149536;0.0569153;0.122986;0.0621033;-0.0547791;-0.0660706;-0.0430298;-0.0543213;-0.0369263;-0.0775146;0.551147;0.666809;-0.506439;-0.157928;0.00473022;-0.0291443;-0.00198364;0.00915527;0.035553;0.0610352;0.0453186;0.0617981;0.080719;0.11261;0.150299;0.187988;0.19577;0.182648;0.196686;0.13031;0.0292969;-0.0839233;-0.136871;-0.137329;-0.1297;-0.101929;-0.0735474;-0.0727844;-0.0753784;-0.101471;-0.102386;-0.0846863;-0.0738525;-0.0747681;-0.0776672;-0.0857544;-0.0764465;-0.0578308;-0.0453186;-0.0439453;-0.045929;-0.0527954;-0.0582886;-0.0305176;0.000762939;0.0749207;0.098877;0.105743;-0.000610352;-0.0735474;-0.0439453;-0.0483704;-0.0534058;-0.0726318;0.171051;1.22345;-0.485077;-0.247955;-0.0222778;-0.0422668;-0.0263977;-0.0149536;0.0267029;0.0401306;0.0465393;0.0627136;0.0717163;0.11261;0.162048;0.191345;0.242157;0.230713;0.22995;0.162201;0.0613403;-0.08255;-0.134277;-0.174255;-0.149078;-0.119781;-0.0965881;-0.0712585;-0.0793457;-0.0984192;-0.0935364;-0.0881958;-0.0744629;-0.0509644;-0.0737;-0.0860596;-0.0842285;-0.0671387;-0.0358582;-0.0401306;-0.0469971;-0.0500488;-0.0494385;-0.032196;-0.0164795;-0.0109863;0.0497437;0.0753784;0.120087;0.0680542;-0.0314331;-0.0395203;-0.062561;-0.0744629;-0.0584412;-0.0544739;0.671234;0.617218;-0.669556;-0.0787354;-0.0540161;-0.0196838;-0.0062561;0.00854492;0.0112915;0.0132751;0.0349426;0.0712585;0.112305;0.137177;0.168152;0.193024;0.218353;0.240631;0.249939;0.130005;-0.0263977;-0.143433;-0.186768;-0.155792;-0.126343;-0.109711;-0.104065;-0.098877;-0.113373;-0.098877;-0.0799561;-0.0761414;-0.0985718;-0.107269;-0.103455;-0.0799561;-0.0617981;-0.0543213;-0.0584412;-0.071106;-0.0646973;-0.0512695;-0.0376892;-0.032959;-0.0387573;-0.0531006;-0.045166;-0.0282288;0.0727844;0.0823975;0.123596;0.0170898;-0.0842285;-0.0595093;-0.0578308;-0.0437927;-0.0474548;-0.0344849;1.14227;-0.250854;-0.397644;-0.0236511;-0.0332642;-0.040741;-0.0143433;-0.00305176;0.0263977;0.0544739;0.0497437;0.0650024;0.0700378;0.11261;0.162506;0.190582;0.20462;0.196838;0.177765;0.0723267;-0.0189209;-0.104065;-0.134888;-0.138245;-0.124664;-0.0947571;-0.0741577;-0.065155;-0.0843811;-0.100403;-0.0865173;-0.0935364;-0.0744629;-0.0657654;-0.0816345;-0.0822449;-0.0842285;-0.0595093;-0.0524902;-0.0418091;-0.045929;-0.0601196;-0.0567627;-0.0483704;-0.0222778;0.00198364;0.0598145;0.0679016;0.102692;0.0317383;-0.065155;-0.04776;-0.0524902;-0.0695801;-0.075531;0.122375;1.22757;-0.515594;-0.307465;-0.0213623;-0.0521851;-0.0119019;0.0250244;0.0219727;0.0354004;0.0390625;0.0590515;0.0810242;0.132294;0.159607;0.182648;0.20752;0.21225;0.234985;0.204468;0.0654602;-0.0680542;-0.147552;-0.167694;-0.125427;-0.0958252;-0.0819397;-0.0787354;-0.101624;-0.101776;-0.0917053;-0.0737;-0.0819397;-0.0767517;-0.0907898;-0.0904846;-0.0914001;-0.0471497;-0.0495911;-0.0537109;-0.0601196;-0.0662231;-0.0564575;-0.0270081;-0.0193787;-0.0344849;-0.0421143;-0.027771;0.065918;0.0953674;0.134888;0.0411987;-0.0875854;-0.0868225;-0.0622559;-0.0515747;-0.0540161;0.0230408;1.26022;-0.384216;-0.408783;0.00823975;-0.0376892;-0.0202942;-0.0178528;-0.0270081;0.0123596;0.0474548;0.0753784;0.0773621;0.0891113;0.125275;0.164948;0.212402;0.240784;0.245972;0.188141;0.0436401;-0.0683594;-0.13092;-0.15686;-0.152588;-0.136414;-0.135803;-0.10498;-0.093689;-0.0672913;-0.0920105;-0.113678;-0.123749;-0.11261;-0.0779724;-0.0682068;-0.0779724;-0.096283;-0.0808716;-0.0749207;-0.0561523;-0.0367737;-0.0547791;-0.0643921;-0.0624084;-0.0491333;-0.0300598;0.0012207;0.0636292;0.0576782;0.0987244;0.0152588;-0.0668335;-0.0535583;-0.0624084;-0.0701904;-0.0747681;0.15152;1.13495;-0.544281;-0.274048;-0.0259399;-0.0463867;-0.0262451;0.0115967;0.0154114;0.0280762;0.0296021;0.0485229;0.0660706;0.0941467;0.136261;0.154266;0.166779;0.177002;0.189667;0.175018;0.0622559;-0.0674438;-0.134277;-0.163879;-0.13031;-0.0994873;-0.0881958;-0.0819397;-0.0973511;-0.0984192;-0.102234;-0.0895691;-0.080719;-0.0759888;-0.0970459;-0.0845337;-0.083313;-0.067749;-0.0521851;-0.0509644;-0.0732422;-0.063324;-0.0457764;-0.0334167;0.0154114;0.0486755;0.098877;0.0712585;-0.0340271;-0.0660706;-0.063324;-0.063324;-0.0791931;-0.0941467;0.59082;0.711823;-0.557556;-0.147095;-0.030365;-0.0411987;-0.0161743;0.0128174;0.0244141;0.0405884;0.0506592;0.058136;0.0892639;0.119019;0.175476;0.184479;0.206451;0.209503;0.210724;0.139465;0.0137329;-0.110321;-0.152588;-0.150299;-0.124207;-0.101624;-0.0782776;-0.0869751;-0.101166;-0.109558;-0.0956726;-0.0845337;-0.0694275;-0.0860596;-0.08255;-0.083313;-0.0822449;-0.0575256;-0.0439453;-0.0524902;-0.050354;-0.0679016;-0.0428772;-0.0267029;-0.0128174;0.045929;0.058136;0.126495;0.0410461;-0.0497437;-0.0553894;-0.0617981;-0.0727844;-0.0650024;-0.0556946;1.05026;0.0180054;-0.53299;-0.0389099;-0.0645447;-0.0326538;-0.0132751;0.00274658;0.0187683;0.0123596;0.0418091;0.0692749;0.10788;0.127106;0.168304;0.181122;0.21347;0.231934;0.218048;0.0999451;-0.0448608;-0.142822;-0.172729;-0.158539;-0.117493;-0.102692;-0.0965881;-0.0930786;-0.0973511;-0.106964;-0.0819397;-0.0715637;-0.0840759;-0.096283;-0.092926;-0.0886536;-0.0585938;-0.055542;-0.0614929;-0.0787354;-0.0720215;-0.0662231;-0.0453186;-0.0271606;-0.0398254;0.0186157;0.0543213;0.107574;0.0706482;-0.0358582;-0.0714111;-0.0865173;-0.0737;-0.0683594;-0.0758362;0.774384;0.66452;-0.657654;-0.0953674;-0.0540161;-0.0318909;-0.0164795;0.00595093;-0.00396729;0.0123596;0.0363159;0.0921631;0.108795;0.136871;0.140381;0.170746;0.203552;0.233307;0.22522;0.130615;-0.0141907;-0.126343;-0.155029;-0.131989;-0.102539;-0.100861;-0.0979614;-0.096283;-0.087738;-0.0721741;-0.0708008;-0.0701904;-0.0871277;-0.0987244;-0.0808716;-0.0691223;-0.0604248;-0.0424194;-0.0701904;-0.0582886;-0.0534058;-0.0361633;-0.0253296;-0.0263977;-0.0378418;0.0352478;0.0410461;0.14801;0.058136;-0.0474548;-0.0575256;-0.0749207;-0.0698853;-0.0421143;0.0128174;1.09085;-0.159302;-0.37384;-0.0663757;-0.0157166;0.00488281;0.0125122;-0.00106812;0.0178528;0.0341797;0.0640869;0.0909424;0.100555;0.12085;0.139008;0.180817;0.201111;0.233917;0.202789;0.080719;-0.0556946;-0.126953;-0.122986;-0.101318;-0.0927734;-0.104218;-0.0959778;-0.103607;-0.0846863;-0.0631714;-0.075531;-0.0968933;-0.0894165;-0.0959778;-0.0614929;-0.0595093;-0.0543213;-0.0643921;-0.0727844;-0.0640869;-0.0306702;-0.0296021;-0.0320435;-0.0286865;-0.00411987;0.0553894;0.122528;0.0975037;-0.014801;-0.0732422;-0.0758362;-0.0717163;-0.0486755;-0.0505066;0.568848;0.847931;-0.639191;-0.143738;-0.0143433;-0.00900269;0.00274658;-0.0105286;0.0163269;0.027771;0.0624084;0.0918579;0.114746;0.118256;0.154724;0.178528;0.227814;0.257568;0.233765;0.144196;-0.0190735;-0.127258;-0.149689;-0.128479;-0.128174;-0.113983;-0.109863;-0.102081;-0.0912476;-0.071106;-0.0657654;-0.104523;-0.0842285;-0.100403;-0.0706482;-0.0526428;-0.0604248;-0.0720215;-0.0769043;-0.0546265;-0.0532532;-0.0201416;-0.0296021;-0.0430298;-0.0596619;-0.0312805;0.0309753;0.0982666;0.141907;0.0769043;-0.0444031;-0.0776672;-0.0553894;-0.0576782;-0.0276184;-0.0598145;0.630798;0.852966;-0.665894;-0.0680542;-0.025177;-0.0337219;-0.0186157;-0.0144958;0.0102234;0.0431824;0.0622559;0.0715637;0.0758362;0.113373;0.166626;0.209351;0.237885;0.240936;0.229797;0.12207;0.00137329;-0.116882;-0.150452;-0.169678;-0.137329;-0.132446;-0.0970459;-0.08255;-0.0737;-0.0971985;-0.103455;-0.104065;-0.0834656;-0.0767517;-0.0822449;-0.0820923;-0.0656128;-0.0758362;-0.0541687;-0.0439453;-0.0268555;-0.0424194;-0.0456238;-0.0415039;-0.0254822;-0.0123596;-0.00839233;-0.00732422;0.0646973;0.0848389;0.125275;0.0224304;-0.0442505;-0.0506592;-0.0704956;-0.0456238;-0.0402832;0.137482;1.18607;-0.379333;-0.305939;-0.0311279;-0.0125122;-0.00183105;0.0195312;0.0131226;0.0285339;0.0140381;0.0839233;0.0965881;0.108185;0.1297;0.159149;0.17746;0.207672;0.22049;0.203705;0.0617981;-0.0610352;-0.135803;-0.138702;-0.113068;-0.106659;-0.0976562;-0.0935364;-0.0938416;-0.0752258;-0.0848389;-0.0721741;-0.0900269;-0.0959778;-0.0889587;-0.0631714;-0.0691223;-0.0547791;-0.0643921;-0.0614929;-0.0675964;-0.0480652;-0.0323486;-0.0268555;-0.045929;-0.0202942;0.0378418;0.0714111;0.143738;0.0556946;-0.0663757;-0.0695801;-0.070343;-0.0627136;-0.0311279;0.0614929;1.20682;-0.425415;-0.376587;-0.0160217;-0.00427246;0.00518799;0.00793457;-0.0050354;0.0202942;0.0569153;0.0823975;0.110168;0.112915;0.137939;0.157471;0.228577;0.243073;0.257416;0.19516;0.0566101;-0.0874329;-0.120392;-0.14389;-0.112915;-0.127716;-0.102997;-0.107574;-0.0801086;-0.0643921;-0.0808716;-0.075531;-0.0868225;-0.0970459;-0.0741577;-0.0569153;-0.0450134;-0.0611877;-0.065918;-0.0595093;-0.0411987;-0.0273132;-0.0267029;-0.0357056;-0.0291443;-0.0379944;-0.0280762;0.00198364;0.0820923;0.0944519;0.132599;0.0369263;-0.0570679;-0.0395203;-0.0463867;-0.0436401;-0.042572;-0.0448608;1.08566;-0.00137329;-0.502319;-0.0111389;-0.0505066;-0.0372314;-0.0167847;0.00869751;0.038147;0.0398254;0.0480652;0.070343;0.0987244;0.149994;0.181274;0.212402;0.239563;0.232391;0.239563;0.110474;-0.0305176;-0.13382;-0.171509;-0.164337;-0.137329;-0.106201;-0.085144;-0.0845337;-0.0921631;-0.104065;-0.0837708;-0.0862122;-0.0662231;-0.0914001;-0.0802612;-0.102692;-0.0614929;-0.0500488;-0.0506592;-0.063324;-0.0602722;-0.0627136;-0.0514221;-0.03479;-0.0175476;-0.0344849;-0.03479;-0.0335693;0.020752;0.0791931;0.139923;0.0883484;-0.0363159;-0.0639343;-0.0537109;-0.0437927;-0.0234985;-0.0566101;0.565796;0.806885;-0.592804;-0.134888;0.00350952;-0.0170898;-0.017395;-0.0137329;0.0163269;0.045929;0.0604248;0.0695801;0.0733948;0.103912;0.130157;0.194397;0.210266;0.22583;0.203094;0.139618;0.0128174;-0.101471;-0.131836;-0.137482;-0.145264;-0.121613;-0.0999451;-0.0811768;-0.0631714;-0.0846863;-0.0849915;-0.0927734;-0.0788879;-0.0778198;-0.0663757;-0.070343;-0.0741577;-0.0889587;-0.0587463;-0.0497437;-0.0366211;-0.0543213;-0.0505066;-0.0518799;-0.0418091;-0.0158691;0.0450134;0.0694275;0.115967;0.0482178;-0.0576782;-0.0604248;-0.058136;-0.0601196;-0.059967;-0.072937;1.00098;-0.0924683;-0.435944;-0.0640869;-0.0405884;-0.0256348;-0.00213623;0.00106812;0.0405884;0.0521851;0.0500488;0.0669861;0.101013;0.126038;0.182343;0.196228;0.208588;0.224609;0.202637;0.0953674;-0.0274658;-0.117493;-0.150909;-0.153809;-0.12558;-0.0822449;-0.0828552;-0.0900269;-0.0897217;-0.0985718;-0.0924683;-0.068512;-0.0732422;-0.0775146;-0.0898743;-0.0843811;-0.0660706;-0.0515747;-0.0445557;-0.0569153;-0.0524902;-0.0585938;-0.0476074;-0.0282288;-0.0227356;-0.0338745;-0.0144958;0.0497437;0.0889587;0.124664;0.0398254;-0.0796509;-0.0695801;-0.0959778;-0.0552368;-0.0547791;0.144806;1.29044;-0.557556;-0.331573;-0.0247192;-0.0332642;-0.0100708;-0.0167847;-0.012207;-0.0132751;0.0308228;0.071106;0.0914001;0.107117;0.128021;0.150146;0.206451;0.244904;0.241699;0.195923;0.0238037;-0.116577;-0.167847;-0.164337;-0.149689;-0.136719;-0.124817;-0.118866;-0.106964;-0.098114;-0.085907;-0.098114;-0.100555;-0.10849;-0.096283;-0.0830078;-0.0704956;-0.0784302;-0.0839233;-0.0889587;-0.0730896;-0.0450134;-0.0427246;-0.0535583;-0.0486755;-0.0657654;-0.0482178;-0.0245667;0.0694275;0.0645447;0.115509;0.00854492;-0.0863647;-0.0776672;-0.0538635;-0.0732422;-0.0723267;0.00335693;1.23367;-0.361786;-0.378113;-0.0125122;-0.0547791;-0.040741;-0.020752;0.000152588;0.0337219;0.0331116;0.0502014;0.0621033;0.0881958;0.127716;0.170898;0.194702;0.215607;0.213318;0.175323;0.0753784;-0.058136;-0.138855;-0.170898;-0.167084;-0.145874;-0.103912;-0.0917053;-0.103302;-0.0938416;-0.118713;-0.0964355;-0.108185;-0.0839233;-0.0967407;-0.0996399;-0.101929;-0.0802612;-0.0746155;-0.0465393;-0.0624084;-0.0631714;-0.0778198;-0.0537109;-0.0437927;-0.0315857;0.00762939;0.0457764;0.110474;0.0682068;-0.0419617;-0.0502014;-0.0724792;-0.0724792;-0.0653076;-0.0933838;0.80307;0.398865;-0.525818;-0.124054;-0.0375366;-0.0367737;0.00320435;0.00991821;0.0234985;0.038147;0.0289917;0.0590515;0.0994873;0.135193;0.137024;0.179901;0.197449;0.207672;0.208893;0.134125;0.00366211;-0.121155;-0.152893;-0.147247;-0.119934;-0.0964355;-0.0999451;-0.0935364;-0.106354;-0.0968933;-0.0843811;-0.0730896;-0.085144;-0.0897217;-0.0935364;-0.0828552;-0.0695801;-0.0509644;-0.0540161;-0.04776;-0.070343;-0.0479126;-0.0352478;-0.019989;-0.0268555;-0.0308228;0.0273132;0.0665283;0.140991;0.067749;-0.0262451;-0.0706482;-0.0761414;-0.0613403;-0.0428772;-0.0427246;0.837402;0.268707;-0.602722;-0.0617981;-0.0352478;-0.00808716;-0.0102234;-0.000305176;0.00457764;0.0289917;0.059967;0.0979614;0.10376;0.127106;0.152588;0.204926;0.239563;0.260468;0.243378;0.111542;-0.0265503;-0.137787;-0.169525;-0.149231;-0.121307;-0.135193;-0.104218;-0.103455;-0.0891113;-0.090332;-0.0822449;-0.0997925;-0.109558;-0.0860596;-0.0949097;-0.0712585;-0.0643921;-0.0743103;-0.0856018;-0.0621033;-0.055542;-0.0392151;-0.0447083;-0.0457764;-0.0541687;-0.0390625;0.00427246;0.0973511;0.104218;0.101776;-0.0236511;-0.0839233;-0.0772095;-0.0495911;-0.0578308;-0.075531;0.150299;1.30524;-0.595245;-0.262451;-0.0157166;-0.0538635;-0.0415039;-0.0288391;-0.0146484;0.0224304;0.0411987;0.0463867;0.0518799;0.0949097;0.135498;0.188293;0.212555;0.23819;0.223083;0.173798;0.0318909;-0.0856018;-0.161438;-0.169983;-0.16861;-0.139465;-0.120697;-0.0810242;-0.0891113;-0.100708;-0.111542;-0.10788;-0.0953674;-0.0878906;-0.0816345;-0.0921631;-0.0901794;-0.0819397;-0.071106;-0.0587463;-0.0509644;-0.057373;-0.0563049;-0.0671387;-0.0413513;-0.0228882;-0.0297546;-0.0244141;0.00518799;0.0389099;0.127258;0.0787354;-0.0389099;-0.0553894;-0.0759888;-0.067749;-0.0387573;-0.0579834;0.760193;0.17807;-0.492859;-0.130768;-0.0143433;-0.00442505;0.00579834;0.00854492;0.0111389;0.0498962;0.0485229;0.0914001;0.0946045;0.128632;0.140533;0.171967;0.205841;0.224152;0.216522;0.114288;-0.014801;-0.105286;-0.13031;-0.117035;-0.112762;-0.103149;-0.0938416;-0.0918579;-0.0874329;-0.0642395;-0.0764465;-0.0860596;-0.0944519;-0.085907;-0.0759888;-0.0521851;-0.0683594;-0.0512695;-0.0692749;-0.0578308;-0.0474548;-0.0221252;-0.0386047;-0.0335693;-0.0445557;-0.0215149;0.0608826;0.107269;0.14389;0.0390625;-0.0857544;-0.0646973;-0.0630188;-0.0375366;-0.0421143;0.0660706;1.21948;-0.314178;-0.338898;-0.00473022;-0.0245667;0.00167847;-0.00778198;-0.00595093;0.03479;0.0508118;0.0875854;0.0794983;0.106812;0.128937;0.182343;0.227356;0.250244;0.243835;0.187683;0.0764465;-0.0671387;-0.125122;-0.144653;-0.145416;-0.132599;-0.119019;-0.102234;-0.0593567;-0.0653076;-0.0814819;-0.0991821;-0.0956726;-0.0782776;-0.0657654;-0.0630188;-0.0648499;-0.0836182;-0.0642395;-0.0602722;-0.0335693;-0.0282288;-0.0401306;-0.0526428;-0.0427246;-0.0315857;-0.0135803;-0.0184631;0.0491333;0.0715637;0.123444;0.0756836;-0.022583;-0.0537109;-0.0474548;-0.0653076;-0.045929;-0.0634766;0.637665;0.926056;-0.646515;-0.102539;-0.0395203;-0.0248718;-0.00411987;-0.00839233;0.0286865;0.0183105;0.0418091;0.0784302;0.11261;0.124054;0.158844;0.182648;0.224152;0.257568;0.262299;0.167542;0.000305176;-0.123291;-0.180054;-0.159149;-0.125732;-0.105438;-0.112915;-0.120392;-0.091095;-0.0946045;-0.0801086;-0.0741577;-0.0898743;-0.101471;-0.0950623;-0.08255;-0.0547791;-0.0553894;-0.0653076;-0.0744629;-0.0585938;-0.0535583;-0.0340271;-0.0265503;-0.0350952;-0.0537109;-0.0404358;-0.0352478;-0.00793457;0.0543213;0.0782776;0.107422;0.0534058;-0.0500488;-0.0521851;-0.0495911;-0.0431824;-0.0588989;-0.0849915;0.804596;0.645599;-0.618439;-0.0617981;-0.0404358;-0.0424194;-0.0242615;0.00610352;0.00793457;0.0434875;0.0346375;0.0610352;0.0932312;0.127869;0.16098;0.187378;0.210876;0.221405;0.213013;0.145264;0.018158;-0.10788;-0.181274;-0.169983;-0.135345;-0.108948;-0.0952148;-0.0967407;-0.101166;-0.106964;-0.10849;-0.0814819;-0.0845337;-0.078125;-0.0990295;-0.0968933;-0.0839233;-0.052948;-0.0486755;-0.0595093;-0.0683594;-0.0621033;-0.0541687;-0.0367737;-0.014801;-0.022583;-0.0448608;-0.0320435;0.0549316;0.0762939;0.135651;0.0201416;-0.0700378;-0.0691223;-0.0662231;-0.0457764;-0.0349426;0.0413513;1.12869;-0.312195;-0.327606;-0.0363159;-0.00198364;0.00518799;-0.00839233;-0.00427246;0.0299072;0.0500488;0.0726318;0.0872803;0.0863647;0.109863;0.154419;0.180206;0.231934;0.223999;0.185699;0.0846863;-0.0505066;-0.117645;-0.127411;-0.122375;-0.123291;-0.116425;-0.0999451;-0.0842285;-0.0836182;-0.0921631;-0.113525;-0.0976562;-0.0971985;-0.0758362;-0.070343;-0.0738525;-0.0862122;-0.072937;-0.0636292;-0.0492859;-0.0436401;-0.0448608;-0.0488281;-0.06073;-0.0306702;-0.0286865;-0.00946045;0.0515747;0.0630188;0.113983;0.0367737;-0.0556946;-0.0523376;-0.0634766;-0.0622559;-0.0706482;-0.0157166;1.14899;0.00930786;-0.457458;-0.0462341;-0.0608826;-0.032196;-0.0038147;-0.00442505;0.0267029;0.0161743;0.0376892;0.065918;0.105286;0.138092;0.161743;0.187988;0.211334;0.232849;0.211182;0.128021;-0.0546265;-0.14389;-0.185852;-0.164948;-0.137634;-0.100403;-0.102234;-0.116577;-0.112;-0.111542;-0.088501;-0.0881958;-0.0871277;-0.108795;-0.100708;-0.0849915;-0.0643921;-0.0567627;-0.0654602;-0.0634766;-0.0654602;-0.0572205;-0.0408936;-0.0291443;-0.035553;-0.0462341;-0.0350952;-0.0431824;0.0234985;0.0932312;0.112;0.0656128;-0.022583;-0.0726318;-0.0585938;-0.0622559;-0.0466919;-0.0784302;0.302124;1.04538;-0.647278;-0.188751;-0.0241089;-0.0508118;-0.0421143;-0.0228882;0.0184631;0.0286865;0.0489807;0.0505066;0.0732422;0.0920105;0.159454;0.193481;0.22644;0.223846;0.232239;0.163574;0.0337219;-0.0888062;-0.173798;-0.17746;-0.173645;-0.138245;-0.119019;-0.101929;-0.0973511;-0.104523;-0.122375;-0.112915;-0.100708;-0.0793457;-0.0901794;-0.0924683;-0.0961304;-0.0883484;-0.0697327;-0.0524902;-0.0517273;-0.0683594;-0.0592041;-0.0476074;-0.0309753;-0.0291443;-0.0265503;-0.0376892;-0.0340271;0.0527954;0.0811768;0.133057;0.0431824;-0.0646973;-0.070343;-0.0665283;-0.0422668;-0.0376892;0.0247192;1.14197;-0.161133;-0.382538;-0.019989;-0.0132751;-0.00106812;-0.00686646;-0.00595093;0.0175476;0.0489807;0.0764465;0.0773621;0.0836182;0.113831;0.142517;0.198822;0.219116;0.225372;0.179138;0.0823975;-0.0485229;-0.116882;-0.13916;-0.142975;-0.12085;-0.124512;-0.100403;-0.0793457;-0.0672913;-0.0770569;-0.0968933;-0.0990295;-0.08255;-0.0798035;-0.0549316;-0.0642395;-0.0796509;-0.0744629;-0.0646973;-0.0354004;-0.0363159;-0.0302124;-0.0631714;-0.057373;-0.0349426;0.0274658;0.0665283;0.141144;0.0596619;-0.0479126;-0.0721741;-0.0500488;-0.0447083;-0.038147;-0.0836182;0.701599;0.269928;-0.517883;-0.111389;-0.0115967;-0.0241089;-0.0146484;-0.00473022;0.0167847;0.0531006;0.0608826;0.0611877;0.0878906;0.0982666;0.158691;0.205841;0.222168;0.219116;0.205841;0.114136;-0.00396729;-0.0973511;-0.142059;-0.145874;-0.136871;-0.120697;-0.0888062;-0.0813293;-0.083313;-0.110474;-0.0852966;-0.0946045;-0.0770569;-0.070343;-0.0656128;-0.0820923;-0.0810242;-0.0639343;-0.0415039;-0.0444031;-0.0294495;-0.0523376;-0.0517273;-0.045166;-0.0126648;-0.0012207;-0.0140381;0.0164795;0.0747681;0.12558;0.0831604;-0.00564575;-0.0657654;-0.0744629;-0.0671387;-0.0572205;-0.0532532;0.580139;0.684357;-0.661621;-0.127716;-0.0422668;-0.0143433;0.00183105;-0.00106812;0.00442505;0.01297;0.0462341;0.0759888;0.110626;0.13855;0.13504;0.184479;0.223694;0.262604;0.257874;0.162506;-0.00671387;-0.126038;-0.187531;-0.153503;-0.130005;-0.117493;-0.121765;-0.1091;-0.0917053;-0.0830078;-0.0817871;-0.0740051;-0.104675;-0.0975037;-0.0808716;-0.0750732;-0.0628662;-0.059967;-0.070343;-0.0737;-0.0584412;-0.0396729;-0.0273132;-0.0369263;-0.0370789;-0.0563049;-0.0390625;-0.00488281;0.0520325;0.0939941;0.140839;0.052948;-0.0598145;-0.0616455;-0.0495911;-0.057373;-0.0584412;-0.0891113;0.82962;0.652161;-0.650482;-0.0410461;-0.0657654;-0.0559998;-0.0309753;-0.00762939;0.00488281;0.0354004;0.030365;0.0584412;0.0801086;0.122681;0.162201;0.22171;0.238495;0.23468;0.217133;0.150604;0.018158;-0.120392;-0.1828;-0.173187;-0.143433;-0.113525;-0.0917053;-0.0785828;-0.0907898;-0.101929;-0.0898743;-0.0822449;-0.0637817;-0.0779724;-0.0802612;-0.0831604;-0.0782776;-0.0515747;-0.040741;-0.0476074;-0.0523376;-0.0596619;-0.050354;-0.0283813;-0.0111389;-0.0166321;-0.0265503;-0.0265503;0.022583;0.0700378;0.1474;0.0906372;-0.0486755;-0.0694275;-0.0709534;-0.0350952;-0.0292969;-0.0585938;0.757446;0.423584;-0.471649;-0.114899;0.0088501;0.00274658;-0.000457764;-0.000610352;0.017395;0.058136;0.0769043;0.0836182;0.0880432;0.108185;0.13504;0.185547;0.220184;0.223083;0.213776;0.12558;-0.0141907;-0.0942993;-0.125427;-0.120697;-0.125427;-0.12558;-0.10437;-0.0906372;-0.0730896;-0.0830078;-0.0993347;-0.0978088;-0.106964;-0.0773621;-0.063324;-0.0617981;-0.0759888;-0.0872803;-0.0715637;-0.0485229;-0.0320435;-0.0398254;-0.0517273;-0.0456238;-0.0610352;-0.0195312;0.0135803;0.0712585;0.111694;0.08255;-0.0187683;-0.0692749;-0.0387573;-0.0575256;-0.0514221;-0.0746155;0.396271;1.02692;-0.582275;-0.180817;-0.0198364;-0.0280762;-0.0276184;0.00457764;0.0300598;0.0473022;0.0650024;0.0541687;0.0895691;0.132141;0.167084;0.213776;0.223846;0.243225;0.246735;0.189972;0.0486755;-0.0813293;-0.164032;-0.172119;-0.166473;-0.109863;-0.0914001;-0.0813293;-0.101166;-0.0938416;-0.103149;-0.0746155;-0.0700378;-0.0801086;-0.0917053;-0.0921631;-0.0791931;-0.0576782;-0.058136;-0.0460815;-0.0561523;-0.0558472;-0.0561523;-0.0263977;-0.0320435;-0.0186157;-0.0338745;-0.0384521;0.0189209;0.0796509;0.151978;0.0871277;-0.0236511;-0.0872803;-0.0630188;-0.0524902;-0.0363159;-0.0480652;0.427246;1.12549;-0.674438;-0.141144;-0.00869751;-0.0120544;-0.0195312;-0.0369263;0.0111389;0.0265503;0.0588989;0.0868225;0.0869751;0.105133;0.141602;0.218201;0.248718;0.283203;0.258179;0.172729;0.0135803;-0.100555;-0.158234;-0.154266;-0.155487;-0.149231;-0.127563;-0.106506;-0.068512;-0.0787354;-0.10025;-0.112305;-0.0953674;-0.0816345;-0.0718689;-0.0715637;-0.0770569;-0.085144;-0.0698853;-0.0512695;-0.0462341;-0.0416565;-0.0524902;-0.0621033;-0.0492859;-0.0300598;-0.0163269;-0.0190735;-0.0172424;-0.00762939;0.055542;0.114746;0.128937;0.0105286;-0.0683594;-0.0608826;-0.0640869;-0.0357056;-0.0360107;0.217438;1.15829;-0.484467;-0.272522;-0.00534058;-0.0190735;-0.00442505;-0.00488281;-0.000762939;0.0149536;0.0390625;0.0923157;0.0880432;0.0927734;0.123444;0.148468;0.201721;0.221252;0.240479;0.192413;0.0541687;-0.0712585;-0.128937;-0.14267;-0.130157;-0.131989;-0.125885;-0.0958252;-0.0837708;-0.0733948;-0.0650024;-0.0892639;-0.104218;-0.10498;-0.0790405;-0.0598145;-0.0588989;-0.0694275;-0.0753784;-0.0717163;-0.0492859;-0.0343323;-0.0289917;-0.0450134;-0.0524902;-0.0474548;-0.0318909;0.0160217;0.0765991;0.121002;0.0811768;-0.0306702;-0.0643921;-0.0558472;-0.035553;-0.0502014;-0.0828552;0.558472;0.800476;-0.572205;-0.14389;-0.00320435;-0.0421143;-0.0231934;0.00320435;0.0314331;0.0535583;0.043335;0.0585938;0.0836182;0.117798;0.157318;0.206299;0.223846;0.22644;0.216675;0.172577;0.0537109;-0.0871277;-0.155945;-0.168457;-0.150909;-0.118561;-0.108643;-0.0860596;-0.0915527;-0.118713;-0.108185;-0.0933838;-0.071106;-0.0787354;-0.0932312;-0.0930786;-0.0872803;-0.0622559;-0.0494385;-0.0468445;-0.0614929;-0.0671387;-0.0631714;-0.0349426;-0.0288391;-0.0297546;-0.0370789;-0.0442505;-0.00335693;0.0717163;0.145264;0.0917053;-0.0244141;-0.0961304;-0.0898743;-0.0631714;-0.037384;-0.0491333;0.394592;1.10947;-0.682983;-0.173035;-0.00488281;-0.0254822;-0.0273132;-0.0244141;-0.0144958;0.0270081;0.0483704;0.0894165;0.0796509;0.109558;0.130768;0.17807;0.241699;0.264435;0.260773;0.17807;0.017395;-0.0865173;-0.13855;-0.144348;-0.136414;-0.139008;-0.128326;-0.0878906;-0.0741577;-0.0801086;-0.0862122;-0.106964;-0.108643;-0.0976562;-0.0601196;-0.0585938;-0.0805664;-0.0852966;-0.0784302;-0.0575256;-0.0428772;-0.055542;-0.0369263;-0.0561523;-0.0578308;-0.0341797;-0.0169373;-0.0245667;-0.0204468;0.0418091;0.0646973;0.139771;0.0576782;-0.0538635;-0.0718689;-0.0814819;-0.0767517;-0.0543213;-0.0453186;1.17691;0.0854492;-0.552063;-0.032959;-0.0437927;-0.0210571;-0.00320435;-0.00579834;-0.0112915;0.0221252;0.057373;0.083313;0.105591;0.124054;0.154419;0.177307;0.22522;0.26123;0.230103;0.114594;-0.0144958;-0.135651;-0.155792;-0.137939;-0.103607;-0.115662;-0.104675;-0.113068;-0.0947571;-0.0753784;-0.072937;-0.0920105;-0.111389;-0.100555;-0.0860596;-0.0642395;-0.0662231;-0.0724792;-0.0799561;-0.0756836;-0.0543213;-0.0422668;-0.0189209;-0.0492859;-0.0541687;-0.0408936;0.0291443;0.0636292;0.153961;0.0527954;-0.0482178;-0.0656128;-0.0572205;-0.0320435;-0.0326538;-0.0463867;0.944366;-0.123749;-0.410156;-0.0753784;-0.0038147;-0.00946045;-0.0117493;0.00167847;0.0167847;0.0601196;0.0698853;0.0738525;0.0765991;0.0906372;0.151672;0.190887;0.215302;0.216675;0.194855;0.108185;-0.0190735;-0.0724792;-0.119019;-0.120544;-0.122528;-0.105743;-0.0990295;-0.0689697;-0.0706482;-0.0869751;-0.0973511;-0.0996399;-0.0822449;-0.0621033;-0.0704956;-0.0662231;-0.068512;-0.0810242;-0.0497437;-0.038147;-0.0363159;-0.0483704;-0.0523376;-0.0476074;-0.0210571;0.0572205;0.0959778;0.141602;0.0396729;-0.0730896;-0.0708008;-0.0541687;-0.0317383;-0.0492859;-0.0547791;1.19537;-0.12085;-0.475922;-0.0166321;-0.0325012;-0.032196;-0.0209045;-0.0189209;0.0349426;0.0512695;0.0445557;0.0683594;0.0920105;0.126038;0.177612;0.224762;0.235443;0.230713;0.213013;0.110168;-0.022583;-0.117645;-0.161591;-0.16861;-0.154114;-0.111847;-0.0883484;-0.0793457;-0.0894165;-0.106964;-0.108032;-0.0938416;-0.0770569;-0.0648499;-0.0830078;-0.0747681;-0.0898743;-0.0604248;-0.0592041;-0.0398254;-0.043335;-0.0624084;-0.0556946;-0.0405884;-0.0238037;0.0317383;0.0737;0.0979614;0.0761414;-0.00930786;-0.0769043;-0.0541687;-0.0727844;-0.0749207;-0.0898743;0.246124;1.28799;-0.634766;-0.224304;-0.0369263;-0.0582886;-0.0413513;-0.000762939;0.00564575;0.0286865;0.00946045;0.0543213;0.0834656;0.121002;0.160065;0.182953;0.2211;0.231323;0.255737;0.204773;0.0517273;-0.0976562;-0.182343;-0.175323;-0.15213;-0.129089;-0.105286;-0.0958252;-0.114136;-0.10788;-0.107117;-0.0898743;-0.0822449;-0.092926;-0.0968933;-0.0999451;-0.0871277;-0.062561;-0.0584412;-0.052948;-0.0640869;-0.0720215;-0.0415039;-0.0320435;-0.0204468;-0.032196;-0.0363159;-0.0372314;0.0309753;0.0883484;0.159607;0.0880432;-0.0352478;-0.0753784;-0.0482178;-0.0358582;-0.0178528;-0.0572205;0.507355;0.641327;-0.577087;-0.14328;0.00183105;-0.00595093;-0.0216675;-0.00335693;0.0212097;0.0582886;0.0682068;0.0810242;0.0808716;0.0996399;0.140686;0.19104;0.221405;0.226593;0.214539;0.135345;0.0308228;-0.0708008;-0.130157;-0.135345;-0.133209;-0.131683;-0.0883484;-0.0772095;-0.068512;-0.0798035;-0.0834656;-0.105896;-0.085144;-0.0727844;-0.0642395;-0.0683594;-0.085144;-0.0769043;-0.0648499;-0.0384521;-0.0430298;-0.0445557;-0.0514221;-0.0547791;-0.042572;-0.0222778;0.0335693;0.0494385;0.115662;0.0437927;-0.0524902;-0.0604248;-0.045166;-0.0549316;-0.0706482;-0.0692749;0.920105;0.263977;-0.452118;-0.0732422;-0.035553;-0.0360107;-0.00778198;0.00289917;0.0401306;0.0465393;0.0369263;0.0749207;0.0906372;0.132904;0.172729;0.198212;0.20874;0.222168;0.236664;0.141754;-0.00534058;-0.0958252;-0.163116;-0.151062;-0.126953;-0.0961304;-0.0830078;-0.0819397;-0.092926;-0.102234;-0.0932312;-0.0672913;-0.0764465;-0.0674438;-0.0865173;-0.0865173;-0.0836182;-0.0518799;-0.0376892;-0.0460815;-0.057373;-0.052948;-0.0410461;-0.0256348;-0.0177002;-0.0231934;-0.0288391;0.0538635;0.072937;0.141907;0.062561;-0.0697327;-0.0697327;-0.0837708;-0.0698853;-0.0424194;-0.00366211;1.22833;0.0245667;-0.473633;-0.017395;-0.0338745;-0.0117493;-0.010376;-0.017395;0.00289917;0.0289917;0.0721741;0.0895691;0.110931;0.124969;0.15274;0.216217;0.259857;0.271912;0.23407;0.109711;-0.057373;-0.14679;-0.162354;-0.141907;-0.120239;-0.132599;-0.112;-0.0956726;-0.0738525;-0.0857544;-0.0749207;-0.102386;-0.0976562;-0.0912476;-0.0714111;-0.0628662;-0.0592041;-0.0787354;-0.0738525;-0.0588989;-0.0457764;-0.0335693;-0.0361633;-0.0474548;-0.0518799;-0.0257874;-0.0256348;-0.00549316;0.0154114;0.0646973;0.0976562;0.102081;0.0131226;-0.0398254;-0.0495911;-0.0622559;-0.0535583;-0.0498962;0.167084;1.17813;-0.516052;-0.294647;-0.0138855;-0.0283813;-0.00640869;0.0112915;0.0189209;0.0241089;0.0334167;0.0610352;0.0886536;0.123138;0.145264;0.158539;0.196686;0.21759;0.240326;0.208282;0.0726318;-0.0608826;-0.154266;-0.160675;-0.127563;-0.117035;-0.103149;-0.0924683;-0.093689;-0.0958252;-0.0747681;-0.0694275;-0.0767517;-0.0917053;-0.092926;-0.0772095;-0.0691223;-0.0535583;-0.0515747;-0.0668335;-0.0723267;-0.0489807;-0.0434875;-0.0300598;-0.045166;-0.0430298;-0.0444031;0.0012207;0.0680542;0.129852;0.075531;-0.0263977;-0.0778198;-0.0793457;-0.0473022;-0.0491333;-0.067749;0.457153;0.624084;-0.589142;-0.172424;-0.00289917;-0.0273132;-0.015564;-0.0259399;0.00396729;0.0415039;0.0709534;0.0602722;0.0668335;0.0860596;0.145569;0.179138;0.221558;0.234985;0.217438;0.136566;0.0263977;-0.0811768;-0.138245;-0.137329;-0.153046;-0.138855;-0.117493;-0.0874329;-0.0897217;-0.0978088;-0.0965881;-0.105743;-0.107727;-0.0854492;-0.0701904;-0.0810242;-0.0889587;-0.0894165;-0.0772095;-0.0592041;-0.0424194;-0.0495911;-0.0637817;-0.0569153;-0.0537109;-0.0386047;-0.0204468;-0.0257874;0.032959;0.0634766;0.118256;0.0520325;-0.04776;-0.0628662;-0.085144;-0.0712585;-0.0596619;-0.070343;1.0968;0.22995;-0.611877;-0.0547791;-0.0512695;-0.0219727;-0.0154114;-0.00839233;-0.00518799;0.000305176;0.0395203;0.0883484;0.101013;0.122223;0.139465;0.174561;0.215607;0.253601;0.246124;0.136871;-0.0280762;-0.150604;-0.183868;-0.166321;-0.129395;-0.129089;-0.121613;-0.117035;-0.111389;-0.083313;-0.0865173;-0.0909424;-0.110931;-0.102386;-0.0923157;-0.083313;-0.0660706;-0.0682068;-0.0663757;-0.0935364;-0.052948;-0.0523376;-0.0265503;-0.0567627;-0.039978;-0.0482178;-0.032196;-0.0247192;0.0105286;0.0790405;0.0794983;0.101471;0.0108337;-0.0578308;-0.0540161;-0.0619507;-0.0540161;-0.0621033;0.058136;1.28906;-0.426483;-0.342712;0;-0.0402832;-0.0204468;0.00778198;0.0245667;0.0442505;0.0402832;0.0526428;0.0701904;0.115509;0.140381;0.187073;0.188599;0.214996;0.22644;0.211029;0.108795;-0.0296021;-0.138092;-0.164948;-0.146027;-0.116577;-0.0845337;-0.0764465;-0.0871277;-0.0991821;-0.0895691;-0.0721741;-0.0695801;-0.0843811;-0.0942993;-0.0883484;-0.0752258;-0.0534058;-0.0506592;-0.0401306;-0.0648499;-0.0498962;-0.0508118;-0.0354004;-0.0144958;-0.00686646;-0.03479;0.0193787;0.0457764;0.142975;0.083313;-0.0358582;-0.0630188;-0.0706482;-0.0698853;-0.0350952;-0.0531006;0.856628;0.323792;-0.476837;-0.122681;-0.00198364;-0.00137329;0.00762939;-0.00930786;0.00411987;0.0280762;0.0704956;0.0798035;0.108032;0.104523;0.13443;0.166321;0.215759;0.240631;0.229492;0.140839;-0.0198364;-0.103302;-0.128784;-0.123901;-0.104828;-0.102997;-0.115509;-0.0996399;-0.0894165;-0.0784302;-0.0770569;-0.0904846;-0.103912;-0.0971985;-0.0749207;-0.059967;-0.0538635;-0.0680542;-0.070343;-0.0727844;-0.0357056;-0.0276184;-0.0213623;-0.0436401;-0.0398254;-0.0389099;-0.0186157;0.0515747;0.0915527;0.121918;0.0770569;-0.0364685;-0.0572205;-0.0410461;-0.0343323;-0.0502014;-0.0848389;0.650635;0.801697;-0.612488;-0.0907898;-0.019989;-0.0434875;-0.0231934;0.00350952;0.0238037;0.0393677;0.0483704;0.0569153;0.0811768;0.124359;0.162506;0.201416;0.218658;0.237732;0.233154;0.180969;0.0350952;-0.101166;-0.158234;-0.168915;-0.153503;-0.11734;-0.0900269;-0.0860596;-0.102692;-0.0932312;-0.0933838;-0.0796509;-0.0761414;-0.0697327;-0.0810242;-0.0894165;-0.067749;-0.0532532;-0.0497437;-0.0386047;-0.0613403;-0.0576782;-0.0473022;-0.0286865;-0.0213623;-0.0184631;-0.0305176;-0.0296021;0.0511169;0.0968933;0.155334;0.0752258;-0.0654602;-0.0695801;-0.0776672;-0.042572;-0.0415039;-0.0576782;0.909424;0.247345;-0.623474;-0.0231934;-0.0410461;-0.0323486;-0.0227356;-0.027771;-0.00137329;0.0312805;0.0518799;0.0889587;0.0814819;0.105743;0.152893;0.192871;0.241699;0.257416;0.22995;0.117188;-0.0196838;-0.120544;-0.161591;-0.159149;-0.150299;-0.130157;-0.12558;-0.0917053;-0.0759888;-0.0798035;-0.0970459;-0.0947571;-0.0921631;-0.0695801;-0.0698853;-0.0636292;-0.0744629;-0.0643921;-0.0675964;-0.0495911;-0.0328064;-0.0248718;-0.0494385;-0.0469971;-0.058136;-0.0152588;-0.00732422;-0.0192261;0.0137329;0.0582886;0.12207;0.0915527;-0.0154114;-0.0448608;-0.0517273;-0.0653076;-0.043335;-0.0578308;0.701752;0.534973;-0.529175;-0.150146;-0.0244141;-0.00991821;0.0125122;0.0228882;0.0128174;0.0411987;0.0532532;0.0749207;0.104523;0.117188;0.137939;0.164032;0.179138;0.224304;0.226898;0.164948;0.0256348;-0.0852966;-0.14267;-0.126038;-0.112457;-0.0971985;-0.0968933;-0.100708;-0.0973511;-0.0801086;-0.0801086;-0.0712585;-0.0857544;-0.087738;-0.0906372;-0.0706482;-0.0552368;-0.0471497;-0.0631714;-0.0665283;-0.0495911;-0.0416565;-0.0296021;-0.0187683;-0.039978;-0.0393677;-0.00961304;0.0747681;0.110016;0.135193;0.0276184;-0.0837708;-0.0721741;-0.0466919;-0.0402832;-0.0460815;0.167999;1.12427;-0.572662;-0.279999;0.000457764;-0.0178528;-0.0112915;-0.0119019;0.015564;0.0323486;0.0650024;0.08255;0.0865173;0.096283;0.142059;0.188141;0.2388;0.250397;0.253906;0.193024;0.0482178;-0.0572205;-0.13031;-0.140839;-0.144653;-0.131989;-0.119629;-0.0796509;-0.0845337;-0.0779724;-0.0918579;-0.0923157;-0.108032;-0.0872803;-0.0772095;-0.0642395;-0.071106;-0.0805664;-0.0740051;-0.0569153;-0.0369263;-0.0376892;-0.057373;-0.0309753;-0.0444031;-0.0315857;-0.00839233;-0.00442505;0.0317383;0.0764465;0.129852;0.0814819;-0.0402832;-0.045929;-0.0605774;-0.0588989;-0.0679016;-0.0584412;0.861206;0.652161;-0.657349;-0.0544739;-0.0569153;-0.0273132;-0.00137329;0.00717163;0.00579834;0.0222778;0.0413513;0.0744629;0.105438;0.141144;0.15564;0.189819;0.222778;0.257416;0.261993;0.172729;0.0189209;-0.117493;-0.172729;-0.172272;-0.130005;-0.109863;-0.11322;-0.106201;-0.106964;-0.0872803;-0.0767517;-0.0846863;-0.096283;-0.0857544;-0.0964355;-0.0714111;-0.0663757;-0.0474548;-0.0592041;-0.0631714;-0.0593567;-0.0485229;-0.0315857;-0.0285339;-0.0419617;-0.038147;-0.0393677;-0.0292969;-0.0131226;0.0202942;0.0791931;0.0997925;0.090332;0.0105286;-0.0546265;-0.0372314;-0.058136;-0.0483704;-0.0547791;0.108948;1.28082;-0.465698;-0.303192;-0.0170898;-0.0456238;-0.0152588;0.0177002;0.0218201;0.0299072;0.0428772;0.0634766;0.088501;0.110626;0.144958;0.187988;0.19989;0.222473;0.24704;0.211182;0.101013;-0.0386047;-0.14801;-0.163422;-0.14389;-0.11261;-0.0938416;-0.0920105;-0.0938416;-0.100861;-0.0761414;-0.0727844;-0.0674438;-0.0846863;-0.085144;-0.0831604;-0.0671387;-0.0561523;-0.0473022;-0.0682068;-0.0468445;-0.0567627;-0.03479;-0.0332642;-0.0250244;-0.0389099;-0.0379944;-0.0288391;0.0460815;0.0790405;0.130768;0.037384;-0.0572205;-0.0564575;-0.0582886;-0.0289917;-0.0354004;0.042572;1.09589;-0.408783;-0.321503;-0.0196838;-0.00137329;-0.0119019;-0.000915527;0.00152588;0.0314331;0.058136;0.0675964;0.0663757;0.0990295;0.098877;0.146179;0.195923;0.218201;0.224152;0.190277;0.0799561;-0.0250244;-0.0938416;-0.115204;-0.124817;-0.116272;-0.112;-0.0785828;-0.0820923;-0.0738525;-0.0773621;-0.0938416;-0.0926208;-0.083313;-0.0669861;-0.058136;-0.0694275;-0.0674438;-0.0691223;-0.0547791;-0.0306702;-0.0227356;-0.0323486;-0.0357056;-0.0286865;-0.014801;0.0820923;0.105133;0.151672;0.0518799;-0.0627136;-0.0517273;-0.0434875;-0.0402832;-0.0457764;0.00778198;1.2117;-0.0901794;-0.421295;-0.0140381;-0.0421143;-0.0283813;-0.0186157;-0.0106812;0.020752;0.0442505;0.057373;0.0723267;0.0773621;0.142059;0.175934;0.224762;0.237732;0.248871;0.219727;0.126495;-0.0331116;-0.125275;-0.160217;-0.161591;-0.148163;-0.122223;-0.0973511;-0.0871277;-0.0942993;-0.122528;-0.103149;-0.105133;-0.0961304;-0.0848389;-0.0939941;-0.107117;-0.0926208;-0.0805664;-0.0683594;-0.0532532;-0.0552368;-0.0688171;-0.0576782;-0.00610352;0.0514221;0.132294;0.0776672;-0.0431824;-0.0883484;-0.070343;-0.0592041;-0.0346375;-0.0674438;0.643616;0.652313;-0.584564;-0.137939;-0.00320435;-0.0146484;-0.0154114;-0.0143433;0.0105286;0.0444031;0.0715637;0.0758362;0.0791931;0.106964;0.140228;0.201263;0.228271;0.231171;0.211792;0.157318;0.0256348;-0.0926208;-0.129547;-0.1474;-0.140076;-0.131836;-0.112915;-0.0772095;-0.0679016;-0.0874329;-0.0904846;-0.106659;-0.0839233;-0.0843811;-0.0794983;-0.0602722;-0.0772095;-0.0799561;-0.0552368;-0.045166;-0.0344849;-0.0488281;-0.0297546;0.0431824;0.0793457;0.0820923;-0.0215149;-0.0897217;-0.0975037;-0.0991821;-0.0749207;-0.0814819;0.309753;1.14883;-0.646973;-0.243378;-0.0398254;-0.0427246;-0.0312805;-0.0215149;-0.0160217;-0.0111389;0.0285339;0.0523376;0.0749207;0.0964355;0.124817;0.143585;0.178528;0.224915;0.227356;0.153809;0.0102234;-0.114441;-0.153046;-0.156555;-0.12558;-0.115814;-0.116577;-0.101929;-0.083313;-0.0732422;-0.0683594;-0.0785828;-0.0926208;-0.0875854;-0.0775146;-0.0726318;-0.0520325;-0.0616455;-0.0688171;-0.0523376;0.0376892;0.0708008;0.124817;0.0306702;-0.101318;-0.085144;-0.0810242;-0.0602722;-0.0604248;0.0325012;1.20834;-0.44693;-0.357208;-0.0228882;-0.0248718;-0.0231934;-0.0169373;-0.0189209;0.0138855;0.0405884;0.0721741;0.075531;0.0917053;0.120697;0.175323;0.217285;0.249329;0.240479;0.169983;0.0296021;-0.0912476;-0.162506;-0.157013;-0.16098;-0.151978;-0.139465;-0.110931;-0.102539;-0.0973511;-0.111237;-0.114746;-0.135803;-0.0987244;-0.104218;-0.0796509;-0.0862122;-0.0965881;-0.0912476;-0.0680542;0;0.0802612;0.0964355;0.0567627;-0.0639343;-0.108948;-0.091095;-0.0788879;-0.0718689;-0.0933838;0.602112;0.8255;-0.663452;-0.088501;-0.0485229;-0.0534058;-0.0476074;-0.0320435;-0.00976562;0.0268555;0.0428772;0.0535583;0.0643921;0.092926;0.149231;0.200806;0.218658;0.224915;0.204468;0.121002;-0.0289917;-0.124207;-0.167694;-0.166626;-0.157776;-0.134583;-0.10498;-0.0872803;-0.100708;-0.109863;-0.116119;-0.115814;-0.098114;-0.0830078;-0.0950623;-0.0863647;-0.101166;-0.0740051;-0.0662231;-0.0518799;-0.0527954;0.0285339;0.0444031;0.12146;0.0378418;-0.072937;-0.0857544;-0.098114;-0.0930786;-0.0775146;-0.0511169;1.11877;0.121155;-0.513;-0.0415039;-0.0663757;-0.0440979;-0.0169373;-0.0183105;-0.00900269;-0.00198364;0.0349426;0.0598145;0.0993347;0.108795;0.132446;0.161285;0.205231;0.223389;0.20874;0.0932312;-0.0654602;-0.14267;-0.161591;-0.138245;-0.115662;-0.110321;-0.101013;-0.113525;-0.100555;-0.0894165;-0.0823975;-0.0933838;-0.0906372;-0.0942993;-0.0799561;-0.0737;-0.0558472;-0.0630188;-0.0798035;-0.0695801;0.0263977;0.0788879;0.133972;0.0309753;-0.091095;-0.0761414;-0.0701904;-0.0523376;-0.045929;0.0698853;1.11038;-0.495605;-0.335846;-0.00930786;-0.0117493;-0.00457764;-0.00701904;-0.00473022;0.018158;0.0428772;0.0706482;0.0660706;0.0865173;0.0985718;0.136108;0.182495;0.215454;0.212097;0.154724;0.0297546;-0.0791931;-0.124054;-0.123138;-0.12619;-0.12558;-0.127563;-0.112457;-0.105286;-0.0979614;-0.100555;-0.119476;-0.121613;-0.113983;-0.098114;-0.0875854;-0.0897217;-0.0860596;-0.0952148;-0.0724792;-0.0144958;0.0637817;0.102081;0.058136;-0.0668335;-0.108643;-0.0993347;-0.0740051;-0.0758362;-0.0920105;0.62088;0.709991;-0.665131;-0.098114;-0.0418091;-0.0445557;-0.0410461;-0.0254822;0.00488281;0.0363159;0.0444031;0.0532532;0.0735474;0.105743;0.140533;0.182343;0.206299;0.220184;0.197449;0.129852;-0.0115967;-0.102844;-0.138855;-0.144806;-0.137482;-0.11322;-0.101624;-0.0881958;-0.0967407;-0.115814;-0.116272;-0.103912;-0.0947571;-0.0846863;-0.0842285;-0.0785828;-0.102386;-0.0778198;-0.063324;-0.0315857;0.0408936;0.0617981;0.109253;0.0323486;-0.0947571;-0.0621033;-0.0700378;-0.0775146;-0.0799561;0.00579834;1.17889;-0.393066;-0.380096;-0.0190735;-0.0422668;-0.012207;0.00930786;0.025177;0.0390625;0.045166;0.0497437;0.0761414;0.101929;0.140839;0.154724;0.179901;0.179291;0.203552;0.17746;0.0765991;-0.0231934;-0.11261;-0.128937;-0.110321;-0.0991821;-0.0695801;-0.0737;-0.0787354;-0.093689;-0.0845337;-0.0698853;-0.0680542;-0.0683594;-0.0750732;-0.0813293;-0.0706482;-0.0630188;-0.0318909;0.0360107;0.0592041;0.0958252;0.0193787;-0.0915527;-0.0691223;-0.0732422;-0.0727844;-0.0840759;0.0259399;1.10168;-0.45578;-0.330353;-0.0357056;-0.0508118;-0.0177002;-0.00991821;0.00488281;0.0323486;0.045929;0.0392151;0.0616455;0.106049;0.128021;0.145264;0.162506;0.168304;0.193939;0.157776;0.0672913;-0.0497437;-0.115814;-0.139618;-0.120239;-0.108185;-0.08255;-0.0901794;-0.0926208;-0.106354;-0.0984192;-0.0846863;-0.0738525;-0.0813293;-0.0845337;-0.093689;-0.0744629;-0.068512;-0.0468445;0.0146484;0.057373;0.107422;0.0669861;-0.052948;-0.0772095;-0.0772095;-0.0694275;-0.0860596;-0.0840759;0.877991;0.388794;-0.616455;-0.0695801;-0.0476074;-0.0286865;-0.00411987;0.00823975;0.0120544;0.0349426;0.0390625;0.0630188;0.0967407;0.125885;0.145569;0.180206;0.187073;0.202026;0.197449;0.135498;-0.0222778;-0.120544;-0.149231;-0.141449;-0.117798;-0.085907;-0.100708;-0.0872803;-0.110168;-0.101624;-0.0892639;-0.0746155;-0.0802612;-0.0820923;-0.107117;-0.0816345;-0.0680542;-0.0506592;-0.052948;0.0228882;0.0508118;0.111847;0.0547791;-0.0463867;-0.0881958;-0.0857544;-0.0961304;-0.0740051;-0.0822449;0.857849;0.513611;-0.611267;-0.0747681;-0.0579834;-0.0346375;-0.0088501;-0.00854492;0.000457764;0.00793457;0.0367737;0.067749;0.10437;0.116119;0.137024;0.159302;0.186615;0.216827;0.215149;0.110474;-0.042572;-0.141449;-0.155945;-0.139771;-0.112762;-0.108032;-0.10437;-0.12207;-0.115814;-0.108795;-0.0888062;-0.104828;-0.106506;-0.114746;-0.10025;-0.0857544;-0.0799561;-0.0709534;-0.0746155;-0.0790405;-0.0698853;0.0106812;0.0616455;0.110779;0.0584412;-0.0643921;-0.096283;-0.0836182;-0.0610352;-0.0567627;-0.0868225;0.648499;0.646362;-0.607758;-0.0990295;-0.0216675;-0.0349426;-0.0222778;-0.019989;0.018158;0.0424194;0.0584412;0.0608826;0.0761414;0.098114;0.133209;0.181885;0.183258;0.19043;0.171814;0.110321;-0.0209045;-0.0968933;-0.13031;-0.130615;-0.132904;-0.105438;-0.0949097;-0.0657654;-0.0849915;-0.0878906;-0.104523;-0.0978088;-0.0878906;-0.0721741;-0.0700378;-0.0784302;-0.0845337;-0.0756836;-0.055542;-0.0404358;-0.0315857;0.00213623;0.0312805;0.10498;0.0680542;-0.035553;-0.0631714;-0.0666809;-0.0799561;-0.0619507;-0.0683594;0.790558;0.367279;-0.459595;-0.140991;-0.0180054;-0.010376;0.0131226;0.0164795;0.0248718;0.0326538;0.0500488;0.0666809;0.0949097;0.11673;0.129089;0.145264;0.1651;0.18219;0.198822;0.11322;-0.0218201;-0.111542;-0.128021;-0.117798;-0.0982666;-0.0886536;-0.0923157;-0.098114;-0.102997;-0.0926208;-0.0773621;-0.0822449;-0.0868225;-0.0991821;-0.0924683;-0.0746155;-0.0588989;-0.0601196;-0.0582886;-0.0624084;-0.0596619;-0.035553;0.0508118;0.0743103;0.12207;0.0369263;-0.0683594;-0.0671387;-0.0537109;-0.0506592;-0.0553894;-0.0421143;1.09772;-0.225983;-0.42511;-0.0448608;-0.0326538;-0.0338745;-0.0158691;-0.000915527;0.0334167;0.0494385;0.0578308;0.0564575;0.0947571;0.123138;0.173645;0.193939;0.214081;0.194244;0.186615;0.0758362;-0.0378418;-0.123444;-0.157166;-0.155182;-0.131531;-0.106659;-0.0782776;-0.0816345;-0.0894165;-0.105438;-0.108185;-0.0898743;-0.0727844;-0.0732422;-0.0744629;-0.0837708;-0.088501;-0.067749;-0.0354004;-0.0447083;-0.0476074;-0.0561523;-0.0497437;-0.0227356;0.0730896;0.0674438;0.114288;0.00808716;-0.085907;-0.070343;-0.0491333;-0.0509644;-0.0508118;-0.018158;1.21262;-0.300446;-0.418091;-0.0151062;-0.0442505;-0.0369263;-0.0253296;-0.00915527;0.0344849;0.0376892;0.0505066;0.0692749;0.0924683;0.128632;0.174408;0.213623;0.229645;0.21759;0.186005;0.0564575;-0.0559998;-0.139465;-0.1651;-0.162506;-0.138702;-0.111237;-0.080719;-0.070343;-0.087738;-0.10437;-0.0965881;-0.0888062;-0.0752258;-0.0799561;-0.0758362;-0.085907;-0.0889587;-0.0645447;-0.045929;-0.0468445;-0.0502014;-0.0521851;-0.0569153;-0.0389099;-0.022583;-0.0125122;-0.0260925;0.015564;0.0737;0.102081;0.0836182;-0.00396729;-0.0653076;-0.0732422;-0.0686646;-0.0511169;-0.0460815;0.289917;1.1319;-0.640106;-0.207367;-0.027771;-0.022583;-0.010376;-0.0038147;-0.0134277;0.00473022;0.0364685;0.0691223;0.0895691;0.11261;0.126038;0.165558;0.207062;0.238342;0.240173;0.167389;0.0105286;-0.105286;-0.167847;-0.146942;-0.136566;-0.117188;-0.126953;-0.103302;-0.0996399;-0.0808716;-0.0874329;-0.0895691;-0.109253;-0.0996399;-0.0895691;-0.0743103;-0.0631714;-0.0698853;-0.0814819;-0.065155;-0.0556946;-0.0398254;-0.017395;-0.0363159;-0.045929;-0.0386047;-0.0312805;0.00350952;0.0671387;0.0769043;0.10437;0.0248718;-0.062561;-0.0364685;-0.0352478;-0.0354004;-0.059967;0.00869751;1.12686;-0.355682;-0.325775;-0.015564;-0.0257874;-0.000305176;0.00518799;0.0341797;0.0537109;0.0610352;0.0665283;0.0737;0.105591;0.144043;0.171509;0.187531;0.194092;0.201721;0.181732;0.0866699;-0.0224304;-0.114594;-0.151062;-0.130005;-0.112;-0.0848389;-0.0753784;-0.0761414;-0.101471;-0.102844;-0.0920105;-0.0695801;-0.0701904;-0.0727844;-0.0907898;-0.0746155;-0.0602722;-0.0440979;-0.0419617;-0.0428772;-0.0486755;-0.057373;-0.0434875;-0.0151062;-0.0134277;0.0123596;0.0547791;0.0810242;0.101776;0.020752;-0.0531006;-0.0550842;-0.0642395;-0.0593567;-0.0582886;0.342712;1.11588;-0.606689;-0.217896;-0.0180054;-0.0224304;0.00961304;0.0126648;0.0222778;0.0263977;0.0492859;0.0793457;0.110779;0.13504;0.16098;0.183868;0.218811;0.244598;0.263214;0.195465;0.0360107;-0.106659;-0.16098;-0.149536;-0.128937;-0.110474;-0.0979614;-0.100403;-0.0918579;-0.0817871;-0.0628662;-0.0721741;-0.0784302;-0.0830078;-0.0874329;-0.0752258;-0.0556946;-0.0439453;-0.0494385;-0.0740051;-0.0543213;-0.0457764;-0.0369263;-0.0242615;-0.0291443;-0.0431824;-0.0384521;0.0236511;0.0875854;0.137482;0.075531;-0.0332642;-0.083313;-0.0708008;-0.0483704;-0.0341797;-0.0679016;0.618286;0.882721;-0.66864;-0.0823975;-0.0263977;-0.0198364;-0.0346375;-0.0285339;0.00335693;0.032959;0.0593567;0.0724792;0.0889587;0.0979614;0.158234;0.212402;0.248871;0.259552;0.226593;0.149231;-0.0132751;-0.116577;-0.162201;-0.163422;-0.154572;-0.142059;-0.115509;-0.0892639;-0.0823975;-0.09552;-0.112152;-0.110321;-0.103149;-0.0836182;-0.0823975;-0.075531;-0.087738;-0.0862122;-0.0845337;-0.0491333;-0.042572;-0.0454712;-0.0631714;-0.0540161;-0.0479126;-0.0244141;-0.0271606;-0.000457764;0.0553894;0.0694275;0.1091;0.0354004;-0.058136;-0.0604248;-0.0701904;-0.0621033;-0.0595093;0.110931;1.2442;-0.47821;-0.319061;-0.0289917;-0.0280762;-0.0062561;0.00854492;0.0115967;0.020752;0.027771;0.0588989;0.0817871;0.107269;0.140839;0.155945;0.182037;0.20813;0.231171;0.196686;0.0576782;-0.0712585;-0.15625;-0.163422;-0.131378;-0.108948;-0.100098;-0.109558;-0.102692;-0.091095;-0.0775146;-0.0743103;-0.085907;-0.0967407;-0.0991821;-0.0827026;-0.0624084;-0.0488281;-0.0556946;-0.0628662;-0.0737;-0.0546265;-0.0382996;-0.0259399;-0.0227356;-0.00259399;0.0408936;0.120392;0.0866699;-0.00335693;-0.0584412;-0.0675964;-0.0770569;-0.0480652;-0.0727844;0.710449;0.291595;-0.517273;-0.146942;-0.0152588;-0.00427246;0.00320435;0.0198364;0.00915527;0.0260925;0.0521851;0.0872803;0.116577;0.122833;0.147095;0.169678;0.211334;0.246887;0.234528;0.137177;-0.0210571;-0.108337;-0.150146;-0.12558;-0.107117;-0.0990295;-0.105133;-0.10498;-0.100403;-0.0796509;-0.0811768;-0.0753784;-0.0987244;-0.093689;-0.0871277;-0.0691223;-0.0657654;-0.0543213;-0.0810242;-0.0691223;-0.052948;-0.0268555;-0.0318909;-0.0280762;-0.0372314;-0.0196838;0.0709534;0.115356;0.122223;0.0183105;-0.0776672;-0.0765991;-0.0628662;-0.040741;-0.0460815;0.405884;1.0582;-0.626831;-0.186462;-0.00244141;-0.0143433;-0.00228882;-0.0190735;0.00396729;0.025177;0.055542;0.0819397;0.0971985;0.106812;0.133057;0.186157;0.234222;0.252991;0.256195;0.164337;0.0244141;-0.102539;-0.148163;-0.15213;-0.142517;-0.124664;-0.122375;-0.104065;-0.0744629;-0.078125;-0.0895691;-0.105591;-0.0997925;-0.0979614;-0.0776672;-0.0672913;-0.0721741;-0.0836182;-0.075531;-0.0643921;-0.0491333;-0.0332642;-0.0416565;-0.0523376;-0.0634766;-0.0228882;0.070343;0.0947571;0.140991;0.017395;-0.0883484;-0.0820923;-0.0682068;-0.0511169;-0.0668335;-0.0167847;1.23962;-0.325012;-0.420074;-0.00976562;-0.0463867;-0.0437927;-0.0332642;-0.0215149;0.0120544;0.0376892;0.0637817;0.0610352;0.0811768;0.115509;0.179596;0.216827;0.239105;0.236511;0.193939;0.0585938;-0.0567627;-0.145569;-0.163879;-0.164185;-0.156097;-0.129852;-0.0959778;-0.0788879;-0.0900269;-0.10849;-0.111389;-0.105743;-0.0854492;-0.0726318;-0.0775146;-0.085907;-0.0912476;-0.0772095;-0.0468445;-0.0448608;-0.0474548;-0.0518799;-0.0605774;-0.0476074;-0.0222778;0.0332642;0.0621033;0.11261;0.0465393;-0.0721741;-0.0593567;-0.0587463;-0.0500488;-0.0720215;-0.0796509;1.06598;-0.0830078;-0.415802;-0.0701904;-0.0270081;-0.0382996;-0.0163269;0.00915527;0.0350952;0.0453186;0.0372314;0.0518799;0.0816345;0.12558;0.156555;0.192719;0.187988;0.197906;0.1828;0.0993347;-0.0257874;-0.126648;-0.158234;-0.148621;-0.13855;-0.103455;-0.0874329;-0.0888062;-0.103455;-0.111237;-0.104828;-0.0852966;-0.0830078;-0.0801086;-0.100708;-0.098877;-0.0860596;-0.0624084;-0.0549316;-0.0582886;-0.0593567;-0.0657654;-0.0534058;-0.0331116;-0.00106812;0.0622559;0.0874329;0.0801086;-0.0170898;-0.078125;-0.052948;-0.0717163;-0.0654602;-0.0918579;0.474548;0.926361;-0.606842;-0.155945;-0.0323486;-0.0463867;-0.020752;-0.00137329;0.0210571;0.0282288;0.0448608;0.0561523;0.0733948;0.126038;0.159912;0.195465;0.21637;0.227051;0.22644;0.161591;0.0192261;-0.103302;-0.179443;-0.189209;-0.15976;-0.115662;-0.102234;-0.100098;-0.0956726;-0.111389;-0.106049;-0.0915527;-0.0857544;-0.0840759;-0.102081;-0.100098;-0.0935364;-0.0724792;-0.0666809;-0.055542;-0.0738525;-0.0750732;-0.0595093;-0.0489807;-0.0343323;-0.0360107;0.00549316;0.0547791;0.107727;0.0656128;-0.0192261;-0.0738525;-0.0888062;-0.0892639;-0.0727844;-0.0779724;0.543823;0.781403;-0.700378;-0.128479;-0.0543213;-0.0289917;-0.0132751;-0.0106812;-0.00549316;-0.00305176;0.0253296;0.0642395;0.0946045;0.117188;0.141754;0.180969;0.222778;0.258331;0.261993;0.151367;-0.0192261;-0.141296;-0.200958;-0.171204;-0.146027;-0.133667;-0.119934;-0.121613;-0.112762;-0.101013;-0.0933838;-0.101471;-0.113068;-0.123596;-0.0907898;-0.0857544;-0.0740051;-0.0704956;-0.0749207;-0.0921631;-0.0726318;-0.0538635;-0.0450134;-0.0465393;-0.0502014;-0.0616455;-0.0465393;0.0286865;0.0691223;0.128479;0.0466919;-0.0614929;-0.0738525;-0.0534058;-0.0476074;-0.0396729;-0.0840759;0.677032;0.29953;-0.513306;-0.121765;-0.00778198;-0.0314331;-0.0344849;-0.0012207;0.0317383;0.0445557;0.0552368;0.0517273;0.0709534;0.0978088;0.148773;0.188293;0.221863;0.20813;0.201111;0.111237;0.00473022;-0.0898743;-0.149536;-0.150757;-0.147552;-0.119171;-0.093689;-0.0764465;-0.0717163;-0.0901794;-0.0991821;-0.0935364;-0.0735474;-0.0790405;-0.065155;-0.0822449;-0.0834656;-0.0743103;-0.0450134;-0.0360107;-0.0422668;-0.0569153;-0.0535583;-0.0532532;-0.0325012;0.00457764;0.0669861;0.0881958;0.0993347;-0.00732422;-0.0701904;-0.0488281;-0.0506592;-0.0590515;-0.0770569;0.280304;1.12869;-0.540009;-0.2211;-0.0253296;-0.035553;-0.0209045;-0.00747681;0.0292969;0.0436401;0.0366211;0.0517273;0.0846863;0.122681;0.155945;0.200653;0.225677;0.22583;0.246124;0.186157;0.059967;-0.0880432;-0.158997;-0.183411;-0.154266;-0.122223;-0.0938416;-0.0863647;-0.0959778;-0.101624;-0.100861;-0.0842285;-0.068512;-0.071106;-0.083313;-0.0938416;-0.0839233;-0.0576782;-0.0421143;-0.0495911;-0.055542;-0.0575256;-0.0514221;-0.0286865;-0.0213623;-0.0286865;-0.0325012;-0.0419617;-0.0184631;0.0793457;0.0994873;0.140076;0.0392151;-0.0727844;-0.0646973;-0.0520325;-0.0390625;-0.0395203;-0.00534058;1.18088;-0.244904;-0.427246;0.00411987;-0.0250244;-0.0273132;-0.0170898;-0.00701904;0.0254822;0.0537109;0.0679016;0.0750732;0.0862122;0.1297;0.180054;0.228882;0.261078;0.259552;0.21347;0.0939941;-0.040741;-0.129089;-0.159912;-0.166473;-0.147552;-0.123901;-0.0939941;-0.0785828;-0.0750732;-0.0965881;-0.098877;-0.0999451;-0.0820923;-0.0737;-0.0746155;-0.0914001;-0.0912476;-0.0843811;-0.0584412;-0.0480652;-0.0442505;-0.0550842;-0.0663757;-0.0585938;-0.0326538;-0.0267029;-0.0221252;-0.0390625;-0.0437927;-0.0140381;0.0918579;0.103912;0.124817;0.0140381;-0.088501;-0.0779724;-0.0596619;-0.0460815;-0.04776;0.0384521;1.2915;-0.422211;-0.367737;0.0105286;-0.0349426;-0.0299072;-0.0349426;-0.01297;0.0161743;0.0463867;0.0631714;0.0695801;0.0843811;0.116577;0.172577;0.220642;0.258789;0.239258;0.19516;0.0749207;-0.0564575;-0.131378;-0.161896;-0.169678;-0.145264;-0.129089;-0.0939941;-0.0813293;-0.0752258;-0.0975037;-0.101166;-0.101471;-0.080719;-0.0718689;-0.0640869;-0.0808716;-0.0845337;-0.0727844;-0.0502014;-0.0354004;-0.0413513;-0.0537109;-0.055542;-0.0469971;-0.0245667;-0.0198364;-0.0131226;-0.0230408;0.0134277;0.0473022;0.140076;0.0798035;-0.032959;-0.0708008;-0.0717163;-0.065918;-0.0379944;-0.0544739;1.0527;-0.0418091;-0.434265;-0.0827026;-0.00427246;0.0062561;0.0146484;0.0114441;0.0154114;0.0305176;0.0648499;0.0889587;0.10437;0.111542;0.132904;0.164642;0.197296;0.215149;0.212555;0.11322;-0.0213623;-0.116577;-0.127869;-0.113525;-0.110626;-0.108337;-0.113068;-0.107117;-0.0827026;-0.0735474;-0.0810242;-0.09552;-0.0949097;-0.0923157;-0.0740051;-0.0593567;-0.0602722;-0.0630188;-0.0624084;-0.0688171;-0.0363159;-0.0276184;-0.025177;-0.0424194;-0.0444031;-0.0201416;0.0712585;0.0970459;0.147858;0.0328064;-0.0741577;-0.0723267;-0.0500488;-0.0445557;-0.0445557;0.121613;1.23154;-0.552063;-0.317383;0.00106812;-0.0231934;-0.0152588;-0.0250244;-0.00915527;0.0338745;0.0588989;0.0733948;0.0794983;0.0883484;0.125885;0.171661;0.219269;0.254211;0.236359;0.178223;0.0476074;-0.0715637;-0.139771;-0.168304;-0.161743;-0.151978;-0.133514;-0.101471;-0.0865173;-0.0909424;-0.11261;-0.125122;-0.105591;-0.0965881;-0.08255;-0.0816345;-0.0923157;-0.0991821;-0.0888062;-0.0721741;-0.0521851;-0.0515747;-0.0624084;-0.0624084;-0.0595093;-0.0439453;-0.0134277;0.0660706;0.071106;0.107727;0.0288391;-0.0628662;-0.0540161;-0.0624084;-0.0712585;-0.0779724;-0.0352478;1.22528;0.032959;-0.454712;-0.0102234;-0.0643921;-0.0378418;-0.012207;0.00610352;0.0227356;0.0270081;0.0300598;0.0637817;0.0938416;0.140533;0.173492;0.19989;0.219574;0.235901;0.220184;0.113831;-0.04776;-0.157166;-0.202332;-0.181274;-0.140076;-0.117493;-0.0973511;-0.10498;-0.118408;-0.114746;-0.100555;-0.0987244;-0.0944519;-0.0984192;-0.109558;-0.102539;-0.0842285;-0.0617981;-0.0617981;-0.0772095;-0.0808716;-0.0747681;-0.0506592;-0.038147;-0.0326538;-0.039978;-0.0183105;0.0370789;0.122681;0.0852966;-0.0143433;-0.0819397;-0.0723267;-0.08255;-0.0485229;-0.0584412;0.648651;0.645752;-0.587616;-0.151672;-0.00595093;-0.00976562;0.000610352;-0.00610352;0.00488281;0.0205994;0.0450134;0.0830078;0.0973511;0.104065;0.109406;0.164337;0.195923;0.213776;0.227509;0.138702;0.0149536;-0.112152;-0.139923;-0.132294;-0.11261;-0.11795;-0.1091;-0.10376;-0.0830078;-0.0709534;-0.083313;-0.0914001;-0.101776;-0.101166;-0.0883484;-0.0628662;-0.0640869;-0.0709534;-0.0799561;-0.0765991;-0.0495911;-0.0436401;-0.0338745;-0.0489807;-0.0169373;0.0314331;0.119781;0.0895691;-0.0222778;-0.0798035;-0.0830078;-0.0752258;-0.0534058;-0.0621033;0.748291;0.53421;-0.57785;-0.134125;-0.0137329;-0.00762939;0.00549316;-0.00137329;0.000915527;0.0228882;0.0642395;0.0834656;0.103149;0.110016;0.140228;0.174103;0.223999;0.245972;0.231018;0.140228;-0.00930786;-0.125122;-0.139923;-0.131531;-0.118713;-0.126801;-0.10788;-0.101929;-0.0814819;-0.0779724;-0.0688171;-0.0949097;-0.10025;-0.101318;-0.0796509;-0.0595093;-0.0590515;-0.0712585;-0.0743103;-0.0650024;-0.0421143;-0.0328064;-0.0296021;-0.0413513;-0.0531006;-0.040741;0.0448608;0.090332;0.149994;0.0497437;-0.0665283;-0.0740051;-0.0666809;-0.0489807;-0.0350952;-0.0567627;0.932617;0.107574;-0.553436;-0.0337219;-0.0231934;-0.0282288;-0.0323486;-0.0242615;0.0144958;0.0430298;0.0636292;0.0619507;0.0793457;0.101471;0.161285;0.213928;0.253296;0.247498;0.220337;0.0993347;-0.0288391;-0.120239;-0.157318;-0.160675;-0.162201;-0.137177;-0.110626;-0.0796509;-0.0798035;-0.0976562;-0.108032;-0.108185;-0.0987244;-0.0794983;-0.0773621;-0.0764465;-0.0959778;-0.0846863;-0.067749;-0.0483704;-0.0506592;-0.0411987;-0.0541687;-0.0624084;-0.0436401;-0.0216675;-0.0248718;-0.0131226;0.057373;0.0746155;0.10437;0.0205994;-0.0775146;-0.0675964;-0.0932312;-0.0718689;-0.0671387;0.0268555;1.35666;-0.348053;-0.411224;-0.0279236;-0.0517273;-0.00946045;-0.00976562;-0.0140381;-0.00213623;0.0152588;0.0549316;0.0888062;0.114899;0.123291;0.154877;0.199738;0.236053;0.254364;0.211182;0.0756836;-0.0810242;-0.172272;-0.166473;-0.144958;-0.11734;-0.119171;-0.105591;-0.103455;-0.0837708;-0.0720215;-0.0723267;-0.0868225;-0.0991821;-0.0920105;-0.0813293;-0.0616455;-0.0537109;-0.0721741;-0.0714111;-0.0654602;-0.0502014;-0.0245667;-0.0244141;-0.0436401;-0.0479126;-0.0453186;0.0233459;0.0663757;0.140839;0.0558472;-0.058136;-0.0730896;-0.0511169;-0.0305176;-0.0296021;-0.0640869;0.80658;0.0717163;-0.437622;-0.0999451;0.00808716;-0.00869751;-0.00549316;-0.00289917;0.0236511;0.0549316;0.0788879;0.0741577;0.0770569;0.104218;0.143738;0.186615;0.222168;0.219269;0.196838;0.108643;-0.000457764;-0.0920105;-0.113831;-0.140533;-0.134277;-0.112762;-0.0894165;-0.0814819;-0.0657654;-0.0901794;-0.107422;-0.09552;-0.0915527;-0.0714111;-0.0642395;-0.0706482;-0.0888062;-0.0738525;-0.0546265;-0.0349426;-0.035553;-0.0378418;-0.0492859;-0.0498962;-0.0311279;-0.00411987;0.0636292;0.0726318;0.119171;0.0413513;-0.0505066;-0.0471497;-0.0411987;-0.0413513;-0.0585938;-0.0422668;1.05774;0.176697;-0.459595;-0.0509644;-0.0370789;-0.0256348;-0.0114441;0.0184631;0.0457764;0.0444031;0.0466919;0.0695801;0.0997925;0.137177;0.181122;0.214233;0.225067;0.238037;0.231171;0.134277;-0.0170898;-0.121765;-0.186005;-0.163422;-0.142059;-0.106659;-0.0941467;-0.091095;-0.101013;-0.0987244;-0.0872803;-0.0814819;-0.0778198;-0.0784302;-0.0935364;-0.0874329;-0.0717163;-0.0480652;-0.0408936;-0.0524902;-0.0698853;-0.0601196;-0.0427246;-0.0268555;-0.0247192;-0.022583;-0.038147;0.0491333;0.0784302;0.147705;0.0471497;-0.0663757;-0.0897217;-0.0828552;-0.0691223;-0.0463867;-0.0294495;1.10062;0.243378;-0.544586;-0.0192261;-0.0363159;-0.0157166;-0.0227356;-0.0239563;-0.0135803;0.0259399;0.0526428;0.0811768;0.0857544;0.11261;0.149689;0.207214;0.251312;0.283051;0.242157;0.113831;-0.0456238;-0.137939;-0.161743;-0.160065;-0.145264;-0.136871;-0.121765;-0.0994873;-0.0827026;-0.0811768;-0.0901794;-0.110321;-0.0996399;-0.0953674;-0.0704956;-0.0646973;-0.0679016;-0.0849915;-0.0700378;-0.059967;-0.0382996;-0.0282288;-0.0444031;-0.0457764;-0.0480652;-0.0247192;-0.010376;-0.00183105;0.0434875;0.0639343;0.123749;0.0613403;-0.0196838;-0.0375366;-0.0544739;-0.0593567;-0.055542;-0.0621033;0.641174;0.548248;-0.571136;-0.1297;-0.0364685;-0.0213623;0.00579834;0.0160217;0.0286865;0.0213623;0.0416565;0.0634766;0.102386;0.120239;0.155487;0.172272;0.199127;0.220032;0.23941;0.163727;0.0230408;-0.101624;-0.165558;-0.155182;-0.118866;-0.0978088;-0.104828;-0.0997925;-0.0875854;-0.0836182;-0.071106;-0.0698853;-0.0749207;-0.0914001;-0.0828552;-0.0764465;-0.0523376;-0.0474548;-0.0556946;-0.0578308;-0.0622559;-0.045929;-0.0263977;-0.0279236;-0.0320435;-0.0341797;0.0376892;0.0700378;0.134583;0.0379944;-0.0694275;-0.0726318;-0.0785828;-0.0559998;-0.0450134;0.116425;1.19034;-0.388031;-0.319977;-0.0283813;-0.0195312;0.0111389;0.00686646;-0.00305176;0.014801;0.0453186;0.0798035;0.0944519;0.103912;0.111084;0.158539;0.201416;0.230255;0.243988;0.201721;0.0714111;-0.0645447;-0.133057;-0.130463;-0.119476;-0.113373;-0.114746;-0.103607;-0.0891113;-0.0740051;-0.0688171;-0.0816345;-0.0965881;-0.093689;-0.0888062;-0.0654602;-0.0569153;-0.057373;-0.0666809;-0.0765991;-0.0523376;-0.0334167;-0.025177;-0.0363159;-0.0416565;-0.0405884;-0.0248718;0.0422668;0.0932312;0.136108;0.0701904;-0.0416565;-0.0593567;-0.0413513;-0.0376892;-0.0364685;-0.068512;0.713348;0.693665;-0.617676;-0.078125;-0.0140381;-0.0286865;-0.0238037;-0.00793457;0.0259399;0.0474548;0.0546265;0.0585938;0.070343;0.108185;0.157318;0.207672;0.233765;0.237427;0.220337;0.155487;0.0337219;-0.0979614;-0.155334;-0.180664;-0.164032;-0.134735;-0.0978088;-0.0883484;-0.0769043;-0.103302;-0.101624;-0.101471;-0.0775146;-0.0717163;-0.0784302;-0.0894165;-0.0828552;-0.0787354;-0.0549316;-0.0413513;-0.0498962;-0.0604248;-0.0601196;-0.0556946;-0.0286865;-0.027771;-0.0271606;-0.045166;-0.0297546;0.0631714;0.0941467;0.132294;0.032196;-0.0842285;-0.0764465;-0.0701904;-0.0524902;-0.0370789;-0.0109863;1.21246;-0.214996;-0.463867;0.00946045;-0.0305176;-0.0241089;-0.0280762;-0.0178528;0.00350952;0.0386047;0.0579834;0.0805664;0.0837708;0.114441;0.15564;0.216217;0.250244;0.2565;0.227966;0.100098;-0.0418091;-0.123749;-0.153046;-0.149994;-0.148315;-0.138245;-0.112152;-0.0811768;-0.0805664;-0.08255;-0.111694;-0.101013;-0.103607;-0.0819397;-0.0723267;-0.0720215;-0.085144;-0.0852966;-0.071106;-0.0405884;-0.0367737;-0.0418091;-0.0515747;-0.0485229;-0.0454712;-0.0204468;-0.0151062;-0.0186157;-0.027771;0.0361633;0.0645447;0.143127;0.0398254;-0.0547791;-0.0697327;-0.0704956;-0.0660706;-0.035553;0.0294495;1.13632;-0.218048;-0.365448;-0.0538635;-0.0152588;0.00106812;0.0062561;-0.00930786;0.0154114;0.0273132;0.0576782;0.0798035;0.0953674;0.101471;0.130005;0.171509;0.207672;0.21286;0.203857;0.0996399;-0.0436401;-0.112457;-0.127869;-0.127106;-0.111847;-0.118103;-0.110931;-0.100708;-0.0840759;-0.0863647;-0.0874329;-0.100098;-0.10849;-0.102997;-0.0811768;-0.0706482;-0.0672913;-0.0830078;-0.0794983;-0.0746155;-0.0526428;-0.0454712;-0.0401306;-0.0567627;-0.0634766;-0.0332642;0.0556946;0.0933838;0.116577;0.0062561;-0.0915527;-0.067749;-0.0688171;-0.040741;-0.0559998;0.122528;1.11526;-0.538788;-0.294189;-0.00595093;-0.0271606;-0.0271606;-0.0170898;-0.0100708;0.0338745;0.0657654;0.0708008;0.0691223;0.0895691;0.127106;0.181427;0.22583;0.238953;0.232849;0.178833;0.0563049;-0.0546265;-0.126343;-0.149994;-0.149689;-0.139618;-0.115356;-0.0846863;-0.0715637;-0.067749;-0.0912476;-0.0971985;-0.0907898;-0.0814819;-0.0598145;-0.0663757;-0.0744629;-0.0845337;-0.0666809;-0.052948;-0.0413513;-0.0357056;-0.0550842;-0.0502014;-0.0463867;-0.0283813;-0.0157166;0.0161743;0.0697327;0.0994873;0.0915527;0.0268555;-0.0631714;-0.0527954;-0.067749;-0.062561;-0.0712585;0.164795;1.28342;-0.574799;-0.285492;-0.0320435;-0.0480652;-0.0190735;-0.00350952;0.000610352;0.00976562;0.0231934;0.043335;0.0868225;0.113983;0.144806;0.171814;0.209198;0.243378;0.257416;0.215454;0.0682068;-0.0752258;-0.170288;-0.177765;-0.148773;-0.121918;-0.102539;-0.106354;-0.109406;-0.105438;-0.0942993;-0.0845337;-0.0778198;-0.101471;-0.09552;-0.0933838;-0.070343;-0.058136;-0.0511169;-0.0704956;-0.0546265;-0.0648499;-0.0340271;-0.0315857;-0.022583;-0.0325012;-0.0267029;0.0619507;0.0811768;0.145874;0.0524902;-0.065155;-0.0723267;-0.0698853;-0.0436401;-0.0382996;0.012207;1.15479;-0.270538;-0.419464;-0.0257874;-0.00549316;0.00534058;-0.00854492;-0.000305176;0.019989;0.0474548;0.0743103;0.0837708;0.101166;0.111237;0.147247;0.201416;0.233612;0.236816;0.195465;0.080719;-0.0422668;-0.131989;-0.153351;-0.139771;-0.129547;-0.125732;-0.116425;-0.0813293;-0.0773621;-0.0787354;-0.0965881;-0.0997925;-0.0997925;-0.0834656;-0.0701904;-0.0646973;-0.0721741;-0.075531;-0.0730896;-0.0428772;-0.0379944;-0.0291443;-0.0427246;-0.032959;0.0317383;0.0674438;0.128174;0.0453186;-0.0796509;-0.0679016;-0.0802612;-0.0506592;-0.0460815;0.052948;1.14624;-0.440369;-0.345306;-0.0367737;-0.00823975;-0.00198364;-0.00930786;0.00396729;0.0166321;0.0448608;0.0689697;0.0953674;0.098877;0.120239;0.148773;0.204163;0.231781;0.250854;0.19928;0.0671387;-0.0564575;-0.109253;-0.130768;-0.103912;-0.109558;-0.104828;-0.0909424;-0.0791931;-0.0692749;-0.0640869;-0.085144;-0.08255;-0.0886536;-0.0666809;-0.0621033;-0.0523376;-0.0692749;-0.0616455;-0.0622559;-0.0375366;-0.032196;-0.027771;-0.0408936;-0.00442505;0.0639343;0.10437;0.122528;0.0270081;-0.0828552;-0.0753784;-0.0701904;-0.0457764;-0.0468445;0.250702;1.27792;-0.641785;-0.247498;-0.00808716;-0.0180054;-0.00305176;-0.01297;-0.00183105;0.0102234;0.0450134;0.0708008;0.0921631;0.111542;0.132294;0.172119;0.232391;0.265198;0.272675;0.189209;0.0193787;-0.10788;-0.163422;-0.161285;-0.13916;-0.128326;-0.120239;-0.108948;-0.0816345;-0.0762939;-0.0741577;-0.0956726;-0.0956726;-0.0920105;-0.083313;-0.0650024;-0.0596619;-0.0689697;-0.0753784;-0.0801086;-0.0540161;-0.050354;-0.0404358;-0.0502014;-0.0524902;-0.045166;0.0352478;0.0778198;0.136719;0.0428772;-0.068512;-0.0895691;-0.0714111;-0.0585938;-0.0393677;-0.08255;0.709686;0.758514;-0.639038;-0.0794983;-0.0257874;-0.0370789;-0.0276184;-0.0291443;0.00152588;0.0366211;0.0540161;0.058136;0.0697327;0.0874329;0.149536;0.201721;0.233154;0.232697;0.21637;0.118561;0.00442505;-0.126343;-0.177612;-0.190887;-0.174866;-0.157928;-0.123749;-0.0946045;-0.0839233;-0.0852966;-0.102386;-0.0865173;-0.0938416;-0.0506592;-0.0613403;-0.0697327;-0.0765991;-0.0602722;-0.0500488;-0.0500488;-0.0498962;-0.11673;-0.106659;-0.0305176;0.0410461;0.0999451;0.167999;0.0860596;-0.0244141;-0.039978;0.0276184;0.0274658;-0.0463867;-0.102539;0.648346;0.384369;-0.720978;-0.23941;-0.0257874;0.0326538;0.0668335;0.0709534;0.043335;0.0410461;-0.00411987;-0.0610352;0.000610352;0.191498;0.267181;0.30899;0.319824;0.305786;0.285339;0.194855;0.0570679;-0.090332;-0.182495;-0.222015;-0.152435;-0.0488281;-0.0108337;-0.0764465;-0.00488281;0.0128174;0.0398254;-0.000305176;0.012207;0.0942993;0.0946045;0.0642395;-0.0674438;-0.169678;-0.120087;-0.050354;-0.0697327;-0.0724792;-0.0436401;0.00854492;0.0378418;0.0675964;-0.00900269;-0.104828;-0.115814;-0.100861;-0.0593567;-0.0688171;0.14389;1.28845;-0.586548;-0.323639;-0.0146484;-0.0166321;0.00198364;-0.0180054;-0.00976562;-0.00671387;0.0195312;0.04776;0.0814819;0.0944519;0.121155;0.15686;0.200806;0.245209;0.25238;0.181732;0.0169373;-0.115509;-0.177765;-0.173492;-0.163879;-0.140381;-0.13855;-0.116272;-0.0978088;-0.087738;-0.0894165;-0.102539;-0.105896;-0.105286;-0.0906372;-0.0932312;-0.0733948;-0.0791931;-0.0843811;-0.0808716;-0.0737;-0.0506592;-0.0440979;-0.0434875;-0.00534058;0.0578308;0.0827026;0.0843811;-0.00701904;-0.0827026;-0.0817871;-0.0883484;-0.0617981;-0.0650024;0.169067;1.23596;-0.590057;-0.294647;-0.0263977;-0.0453186;-0.0236511;-0.0271606;-0.022583;-0.00350952;0.0259399;0.0474548;0.0724792;0.091095;0.114288;0.143585;0.197601;0.227356;0.228119;0.166779;0.0318909;-0.104828;-0.159149;-0.168152;-0.1474;-0.137024;-0.125427;-0.121307;-0.106964;-0.0994873;-0.0944519;-0.110168;-0.114441;-0.110321;-0.100861;-0.0932312;-0.0839233;-0.08255;-0.0839233;-0.0863647;-0.0611877;0.000305176;0.0436401;0.0999451;0.0466919;-0.0727844;-0.0808716;-0.0770569;-0.0640869;-0.0642395;-0.0926208;0.634155;0.491486;-0.473175;-0.161591;-0.0184631;-0.0419617;-0.0267029;-0.00930786;0.0180054;0.0334167;0.0444031;0.0524902;0.067749;0.0973511;0.145416;0.169525;0.192871;0.20462;0.185242;0.119781;-0.00808716;-0.0827026;-0.130463;-0.131531;-0.125427;-0.0997925;-0.0854492;-0.0718689;-0.0869751;-0.0898743;-0.105438;-0.0823975;-0.0823975;-0.0642395;-0.0772095;-0.0816345;-0.0776672;-0.0582886;-0.0424194;0.0038147;0.0585938;0.111694;0.0630188;-0.0350952;-0.0779724;-0.0650024;-0.0791931;-0.0636292;-0.0830078;0.416565;0.769653;-0.621338;-0.16983;-0.0248718;-0.0335693;-0.0169373;-0.000762939;0.0190735;0.0384521;0.0514221;0.0593567;0.0920105;0.123138;0.164795;0.199738;0.219574;0.230408;0.238342;0.142822;0.0109863;-0.100555;-0.164337;-0.162506;-0.139923;-0.106964;-0.088501;-0.0914001;-0.0965881;-0.109406;-0.101318;-0.0868225;-0.0787354;-0.0782776;-0.0906372;-0.0839233;-0.0784302;-0.0552368;-0.0572205;-0.0442505;0.0108337;0.0622559;0.10788;0.0584412;-0.0506592;-0.0828552;-0.0942993;-0.0978088;-0.0715637;-0.0775146;0.543213;0.973663;-0.692444;-0.125275;-0.0402832;-0.0370789;-0.00991821;-0.0112915;-0.012207;0.0115967;0.0396729;0.0642395;0.0979614;0.116577;0.139465;0.162659;0.214081;0.244446;0.243225;0.148621;-0.0213623;-0.137482;-0.158997;-0.151672;-0.129242;-0.113373;-0.114136;-0.108185;-0.0947571;-0.0827026;-0.0863647;-0.0956726;-0.0999451;-0.0991821;-0.0894165;-0.0752258;-0.0694275;-0.0686646;-0.0738525;-0.0767517;-0.0595093;-0.0453186;-0.0326538;0.0370789;0.0534058;0.103149;0.050354;-0.0709534;-0.0657654;-0.0642395;-0.0756836;-0.0744629;-0.0889587;0.774841;0.626373;-0.640564;-0.0869751;-0.0534058;-0.0386047;-0.0190735;0.00305176;0.00579834;0.0202942;0.0343323;0.0592041;0.0892639;0.105591;0.144348;0.165253;0.174255;0.199127;0.191498;0.148621;0.000457764;-0.100708;-0.145111;-0.128784;-0.116882;-0.0839233;-0.0744629;-0.0790405;-0.0796509;-0.0875854;-0.0614929;-0.04776;-0.0474548;-0.0286865;-0.0184631;0.0100708;0.0227356;0.0177002;0.000915527;-0.0382996;-0.0427246;-0.030365;0.0108337;0.0721741;0.0735474;0.0453186;0.00961304;-0.0415039;-0.0892639;-0.0532532;-0.00320435;-0.107269;0.0843811;1.13251;-0.63446;-0.361938;-0.0364685;-0.0442505;-0.0442505;-0.122375;-0.0723267;-0.058136;-0.0349426;-0.0283813;-0.00259399;0.00259399;0.0305176;0.0662231;0.0871277;0.13092;0.142975;0.125275;0.0344849;-0.0527954;-0.137634;-0.144043;-0.123444;-0.110931;-0.0891113;-0.0776672;-0.0663757;-0.122528;-0.0852966;-0.133514;-0.0944519;-0.0817871;-0.0918579;-0.0805664;-0.0814819;-0.0480652;-0.0738525;-0.0144958;-0.0466919;-0.0341797;0.0323486;0.065155;0.153809;0.0769043;-0.0166321;-0.0935364;-0.0744629;-0.0590515;-0.0354004;-0.0778198;0.778351;0.383301;-0.614319;-0.0668335;-0.0088501;0.00595093;-0.0157166;0.0228882;0.000762939;0.0524902;0.0537109;0.113068;0.107117;0.120392;0.163116;0.180511;0.236206;0.244446;0.210571;0.124359;-0.00976562;-0.105896;-0.1297;-0.11795;-0.124054;-0.0775146;-0.122833;-0.0875854;-0.0848389;-0.0416565;-0.0921631;-0.0775146;-0.103302;-0.0926208;-0.0592041;-0.0610352;-0.0767517;-0.0576782;-0.0535583;-0.0532532;-0.0579834;0.00808716;0.032196;0.0714111;0.124512;0.0434875;-0.070343;-0.0532532;-0.062561;-0.0668335;-0.0796509;-0.0759888;0.985718;0.352783;-0.625153;-0.0306702;-0.0631714;-0.022583;-0.0198364;0.0088501;0.00991821;0.0376892;0.0366211;0.0765991;0.101166;0.13504;0.155487;0.175018;0.195923;0.210876;0.211029;0.142975;0.000152588;-0.0950623;-0.158081;-0.120087;-0.101166;-0.0772095;-0.0701904;-0.0823975;-0.0880432;-0.0776672;-0.0796509;-0.055542;-0.0663757;-0.0689697;-0.0746155;-0.0721741;-0.0549316;-0.0370789;-0.0372314;-0.0450134;-0.0276184;0.0418091;0.0930786;0.132446;0.0183105;-0.0834656;-0.0842285;-0.0762939;-0.0636292;-0.0524902;0.16983;0.968323;-0.540314;-0.279846;-0.0154114;-0.00167847;-0.00350952;0.00183105;0.0160217;0.0245667;0.0576782;0.0827026;0.0823975;0.105133;0.10788;0.143585;0.165405;0.199585;0.192719;0.148315;0.032959;-0.0553894;-0.106812;-0.098114;-0.100708;-0.0914001;-0.0907898;-0.0863647;-0.0767517;-0.0660706;-0.0656128;-0.0785828;-0.0894165;-0.0863647;-0.0650024;-0.0413513;-0.0485229;-0.0422668;-0.000305176;0.0617981;0.132904;0.0865173;-0.0296021;-0.0738525;-0.0952148;-0.0801086;-0.0509644;-0.0569153;0.676727;0.379944;-0.59906;-0.11673;-0.0111389;-0.00152588;0.00411987;-0.00228882;0.00366211;0.0328064;0.0691223;0.0997925;0.114288;0.13092;0.140228;0.179443;